36.619
36.578
36.562
36.536
36.494
36.452
36.411
36.35
36.24
36.094
35.976
35.899
35.829
35.739
35.619
35.503
35.417
35.357
35.307
35.261
35.21
35.192
35.31
35.668
36.302
37.087
37.784
38.231
38.388
38.305
38.083
37.823
37.601
37.428
37.256
37.081
36.912
36.729
36.544
36.392
36.301
36.289
36.314
36.351
36.378
36.359
36.31
36.255
36.166
36.058
35.941
35.816
35.675
35.524
35.41
35.345
35.279
35.188
35.079
35.003
34.962
34.938
34.938
34.975
35.106
35.392
35.87
36.514
37.199
37.735
38.004
37.994
37.807
37.562
37.331
37.122
36.918
36.721
36.522
36.337
36.207
36.127
36.084
36.066
36.056
36.045
36.038
36.035
36.02
35.983
35.913
35.805
35.691
35.602
35.518
35.418
35.317
35.213
35.128
35.078
35.062
35.051
35.016
34.956
34.903
34.877
34.888
34.956
35.179
35.649
36.336
37.049
37.6
37.899
37.924
37.722
37.419
37.104
36.805
36.561
36.388
36.259
36.155
36.052
35.955
35.873
35.842
35.875
35.951
36.025
36.064
36.034
35.939
35.811
35.678
35.584
35.536
35.484
35.398
35.298
35.219
35.17
35.141
35.102
35.052
35.023
35.045
35.207
35.605
36.221
36.907
37.483
37.796
37.818
37.641
37.39
37.115
36.844
36.617
36.411
36.213
36.039
35.915
35.828
35.787
35.818
35.902
35.97
35.996
35.981
35.923
35.842
35.767
35.704
35.654
35.586
35.488
35.379
35.293
35.235
35.187
35.13
35.077
35.13
35.394
35.91
36.602
37.289
37.798
38.045
38.05
37.886
37.618
37.315
37.03
36.803
36.636
36.512
36.387
36.236
36.089
35.99
35.971
36.021
36.086
36.12
36.119
36.077
36.002
35.93
35.862
35.781
35.697
35.602
35.494
35.403
35.329
35.288
35.335
35.536
35.975
36.643
37.386
37.988
38.317
38.357
38.192
37.948
37.698
37.473
37.278
37.084
36.889
36.726
36.596
36.47
36.374
36.333
36.351
36.398
36.425
36.402
36.343
36.276
36.213
36.159
36.121
36.063
35.949
35.809
35.701
35.623
35.555
35.523
35.57
35.749
36.134
36.757
37.517
38.167
38.543
38.643
38.546
38.357
38.145
37.933
37.735
37.556
37.386
37.214
37.055
36.911
36.779
36.692
36.649
36.633
36.628
36.602
36.566
36.527
36.482
36.431
36.37
36.293
36.188
36.064
35.954
35.84
35.73
35.637
35.577
35.546
35.605
35.871
36.403
37.135
37.893
38.473
38.75
38.734
38.544
38.285
38.013
37.776
37.593
37.45
37.31
37.146
36.96
36.769
36.596
36.499
36.513
36.587
36.639
36.638
36.58
36.493
36.421
36.35
36.246
36.12
36.002
35.891
35.783
35.7
35.643
35.587
35.51
35.433
35.387
35.42
35.615
36.069
36.748
37.499
38.105
38.427
38.454
38.265
37.99
37.718
37.486
37.285
37.08
36.865
36.667
36.499
36.355
36.256
36.198
36.185
36.214
36.235
36.231
36.209
36.17
36.111
36.032
35.923
35.81
35.708
35.603
35.496
35.389
35.303
35.243
35.201
35.147
35.082
35.032
35.065
35.315
35.832
36.552
37.304
37.882
38.157
38.126
37.894
37.582
37.253
36.955
36.717
36.531
36.377
36.234
36.085
35.957
35.879
35.854
35.87
35.915
35.98
36.029
36.039
36.0
35.913
35.788
35.653
35.532
35.44
35.375
35.331
35.293
35.242
35.18
35.199
35.444
35.967
36.659
37.316
37.755
37.903
37.795
37.551
37.275
37.014
36.752
36.517
36.319
36.13
35.943
35.816
35.774
35.786
35.812
35.841
35.877
35.919
35.937
35.906
35.848
35.784
35.699
35.606
35.517
35.425
35.334
35.282
35.274
35.309
35.471
35.858
36.483
37.217
37.84
38.168
38.184
37.987
37.678
37.329
37.027
36.829
36.694
36.557
36.412
36.274
36.15
36.056
36.012
36.019
36.06
36.117
36.143
36.105
36.027
35.957
35.903
35.845
35.753
35.64
35.548
35.493
35.453
35.448
35.549
35.847
36.401
37.114
37.783
38.234
38.38
38.271
38.046
37.806
37.609
37.455
37.293
37.127
36.949
36.765
36.593
36.449
36.352
36.295
36.273
36.273
36.263
36.246
36.254
36.265
36.216
36.099
35.962
35.855
35.783
35.72
35.648
35.573
35.512
35.522
35.693
36.096
36.727
37.469
38.112
38.504
38.616
38.508
38.292
38.058
37.824
37.604
37.41
37.258
37.13
36.982
36.801
36.627
36.513
36.488
36.506
36.513
36.494
36.444
36.381
36.319
36.27
36.225
36.142
35.996
35.822
35.665
35.56
35.52
35.503
35.469
35.404
35.323
35.26
35.223
35.262
35.467
35.909
36.568
37.334
38.014
38.44
38.548
38.37
38.049
37.711
37.439
37.257
37.138
37.032
36.91
36.766
36.599
36.428
36.282
36.21
36.22
36.259
36.266
36.218
36.14
36.077
36.031
35.969
35.893
35.795
35.658
35.522
35.413
35.318
35.242
35.186
35.15
35.131
35.111
35.065
35.029
35.082
35.326
35.839
36.557
37.304
37.873
38.116
38.04
37.789
37.476
37.174
36.913
36.689
36.505
36.341
36.177
36.021
35.894
35.827
35.815
35.833
35.862
35.881
35.887
35.875
35.824
35.737
35.635
35.542
35.427
35.312
35.228
35.171
35.118
35.052
34.987
34.907
34.834
34.794
34.768
34.758
34.797
34.986
35.43
36.117
36.875
37.469
37.767
37.763
37.549
37.229
36.876
36.536
36.26
36.053
35.899
35.764
35.652
35.567
35.52
35.531
35.582
35.641
35.686
35.706
35.692
35.628
35.543
35.473
35.435
35.382
35.279
35.152
35.031
34.934
34.882
34.862
34.845
34.829
34.844
34.949
35.242
35.766
36.451
37.108
37.521
37.602
37.434
37.118
36.759
36.432
36.18
35.997
35.827
35.677
35.571
35.519
35.504
35.502
35.523
35.567
35.602
35.622
35.637
35.626
35.58
35.531
35.493
35.438
35.346
35.227
35.126
35.061
35.033
35.003
35.0
35.155
35.559
36.178
36.858
37.415
37.71
37.715
37.516
37.209
36.884
36.609
36.404
36.238
36.085
35.931
35.801
35.719
35.688
35.705
35.742
35.801
35.856
35.881
35.87
35.822
35.754
35.682
35.615
35.525
35.423
35.34
35.305
35.268
35.209
35.202
35.366
35.814
36.495
37.216
37.792
38.116
38.171
38.022
37.762
37.472
37.187
36.94
36.754
36.627
36.516
36.393
36.273
36.2
36.171
36.162
36.175
36.188
36.195
36.207
36.211
36.177
36.101
35.996
35.89
35.801
35.735
35.683
35.625
35.579
35.548
35.542
35.641
35.971
36.57
37.301
37.968
38.416
38.569
38.472
38.243
37.977
37.717
37.493
37.3
37.139
36.975
36.81
36.669
36.582
36.551
36.539
36.522
36.504
36.511
36.52
36.513
36.486
36.426
36.326
36.212
36.107
36.034
35.984
35.931
35.867
35.782
35.695
35.644
35.687
35.912
36.378
37.061
37.796
38.365
38.66
38.673
38.494
38.231
37.959
37.719
37.522
37.353
37.188
37.008
36.834
36.696
36.604
36.555
36.555
36.582
36.605
36.616
36.599
36.537
36.454
36.364
36.266
36.178
36.113
36.043
35.957
35.88
35.828
35.781
35.714
35.618
35.545
35.611
35.918
36.493
37.217
37.902
38.387
38.585
38.509
38.265
37.939
37.615
37.342
37.141
36.997
36.865
36.714
36.561
36.456
36.396
36.363
36.354
36.36
36.369
36.39
36.401
36.351
36.242
36.105
35.995
35.936
35.898
35.838
35.742
35.653
35.589
35.5
35.388
35.311
35.306
35.349
35.499
35.84
36.384
37.04
37.652
38.065
38.192
38.071
37.819
37.532
37.251
37.014
36.818
36.657
36.499
36.332
36.205
36.133
36.101
36.109
36.144
36.177
36.209
36.225
36.212
36.158
36.064
35.946
35.828
35.742
35.71
35.687
35.625
35.542
35.451
35.356
35.28
35.266
35.331
35.494
35.845
36.414
37.091
37.708
38.105
38.196
38.017
37.687
37.343
37.047
36.828
36.67
36.54
36.397
36.235
36.112
36.063
36.061
36.086
36.126
36.174
36.199
36.181
36.148
36.09
36.005
35.919
35.839
35.765
35.694
35.628
35.562
35.495
35.437
35.423
35.511
35.791
36.302
36.959
37.59
38.038
38.223
38.146
37.884
37.552
37.235
36.973
36.773
36.61
36.452
36.298
36.183
36.128
36.122
36.152
36.201
36.246
36.284
36.318
36.311
36.244
36.142
36.042
35.967
35.915
35.846
35.752
35.649
35.584
35.579
35.669
35.949
36.484
37.178
37.853
38.323
38.482
38.378
38.133
37.86
37.62
37.417
37.231
37.036
36.842
36.66
36.519
36.442
36.429
36.454
36.484
36.513
36.538
36.542
36.52
36.463
36.383
36.298
36.194
36.082
35.976
35.89
35.838
35.812
35.849
36.039
36.466
37.092
37.786
38.37
38.707
38.777
38.65
38.422
38.17
37.963
37.816
37.688
37.536
37.358
37.175
37.019
36.882
36.77
36.737
36.778
36.843
36.889
36.898
36.865
36.799
36.711
36.605
36.488
36.372
36.261
36.154
36.057
36.001
35.995
36.081
36.331
36.828
37.523
38.244
38.806
39.09
39.099
38.908
38.657
38.439
38.288
38.177
38.04
37.849
37.62
37.398
37.222
37.104
37.055
37.078
37.12
37.131
37.1
37.029
36.944
36.872
36.806
36.716
36.601
36.487
36.374
36.271
36.177
36.085
35.999
35.937
35.907
35.886
35.869
35.921
36.142
36.617
37.331
38.091
38.671
38.96
38.974
38.808
38.569
38.343
38.157
38.001
37.862
37.722
37.553
37.355
37.142
36.973
36.891
36.874
36.883
36.886
36.88
36.866
36.817
36.729
36.626
36.505
36.381
36.272
36.144
36.015
35.913
35.846
35.784
35.704
35.649
35.611
35.559
35.491
35.46
35.504
35.699
36.114
36.748
37.471
38.073
38.403
38.446
38.288
38.024
37.747
37.513
37.336
37.183
37.022
36.857
36.688
36.51
36.367
36.296
36.295
36.321
36.328
36.317
36.288
36.25
36.221
36.168
36.062
35.925
35.799
35.675
35.552
35.45
35.37
35.32
35.274
35.216
35.16
35.102
35.062
35.072
35.094
35.119
35.241
35.603
36.231
36.972
37.592
37.929
37.95
37.743
37.452
37.166
36.918
36.709
36.531
36.374
36.229
36.081
35.943
35.838
35.774
35.746
35.743
35.784
35.85
35.909
35.925
35.856
35.732
35.617
35.52
35.434
35.357
35.292
35.237
35.18
35.104
34.994
34.902
34.874
34.895
34.924
34.946
34.972
35.073
35.358
35.88
36.565
37.205
37.611
37.702
37.537
37.248
36.91
36.578
36.327
36.161
36.038
35.929
35.802
35.675
35.575
35.53
35.546
35.607
35.685
35.738
35.729
35.69
35.647
35.588
35.524
35.462
35.381
35.278
35.182
35.093
35.035
34.995
34.967
34.952
34.974
35.092
35.387
35.877
36.512
37.125
37.522
37.615
37.457
37.178
36.855
36.537
36.277
36.077
35.918
35.777
35.653
35.565
35.521
35.523
35.557
35.612
35.698
35.768
35.773
35.709
35.621
35.534
35.464
35.411
35.371
35.315
35.221
35.12
35.042
35.035
35.167
35.503
36.038
36.686
37.29
37.674
37.777
37.642
37.384
37.1
36.832
36.618
36.443
36.289
36.162
36.029
35.903
35.813
35.774
35.781
35.818
35.865
35.897
35.907
35.885
35.832
35.773
35.724
35.665
35.602
35.544
35.47
35.382
35.294
35.26
35.401
35.81
36.461
37.175
37.758
38.095
38.156
38.0
37.75
37.48
37.225
37.02
36.872
36.737
36.577
36.408
36.262
36.178
36.172
36.198
36.213
36.214
36.217
36.214
36.184
36.12
36.035
35.951
35.884
35.848
35.823
35.773
35.684
35.592
35.562
35.707
36.11
36.742
37.455
38.055
38.412
38.499
38.379
38.162
37.923
37.713
37.563
37.448
37.329
37.189
37.015
36.83
36.67
36.571
36.534
36.545
36.573
36.601
36.614
36.606
36.556
36.447
36.322
36.228
36.152
36.09
36.052
36.004
35.919
35.812
35.717
35.67
35.731
35.974
36.459
37.144
37.899
38.525
38.865
38.897
38.709
38.434
38.177
37.977
37.836
37.744
37.644
37.49
37.286
37.077
36.91
36.821
36.809
36.824
36.834
36.832
36.815
36.786
36.74
36.66
36.548
36.443
36.357
36.284
36.217
36.134
36.032
35.932
35.84
35.752
35.669
35.621
35.62
35.625
35.602
35.601
35.784
36.254
36.964
37.717
38.303
38.614
38.659
38.505
38.241
37.938
37.676
37.484
37.362
37.268
37.138
36.969
36.81
36.707
36.65
36.6
36.543
36.5
36.492
36.502
36.497
36.444
36.345
36.237
36.151
36.072
35.977
35.895
35.826
35.754
35.666
35.588
35.515
35.439
35.371
35.328
35.32
35.346
35.376
35.491
35.838
36.454
37.207
37.869
38.256
38.309
38.114
37.802
37.48
37.208
36.993
36.823
36.698
36.604
36.494
36.346
36.199
36.117
36.122
36.161
36.173
36.161
36.159
36.144
36.1
36.017
35.898
35.777
35.668
35.573
35.477
35.381
35.306
35.258
35.248
35.256
35.238
35.193
35.146
35.111
35.122
35.222
35.517
36.062
36.776
37.44
37.866
37.994
37.859
37.589
37.286
37.015
36.774
36.56
36.397
36.288
36.194
36.091
35.986
35.91
35.874
35.867
35.867
35.867
35.883
35.898
35.885
35.827
35.733
35.626
35.532
35.462
35.413
35.363
35.29
35.209
35.142
35.088
35.031
35.002
35.031
35.082
35.138
35.272
35.589
36.131
36.808
37.434
37.839
37.95
37.809
37.515
37.169
36.87
36.646
36.461
36.295
36.154
36.035
35.945
35.88
35.824
35.807
35.834
35.887
35.951
35.98
35.956
35.89
35.808
35.737
35.672
35.597
35.512
35.43
35.344
35.27
35.226
35.2
35.18
35.167
35.201
35.336
35.658
36.204
36.882
37.492
37.881
37.989
37.861
37.587
37.262
36.963
36.708
36.489
36.296
36.121
35.992
35.927
35.911
35.914
35.948
36.009
36.07
36.105
36.11
36.094
36.05
35.953
35.835
35.751
35.709
35.663
35.579
35.485
35.412
35.394
35.458
35.692
36.153
36.79
37.431
37.922
38.173
38.173
37.987
37.697
37.402
37.158
36.963
36.767
36.575
36.426
36.311
36.231
36.213
36.245
36.29
36.323
36.344
36.356
36.369
36.367
36.319
36.228
36.121
36.016
35.928
35.85
35.781
35.764
35.873
36.184
36.738
37.437
38.091
38.528
38.673
38.571
38.345
38.096
37.882
37.699
37.542
37.404
37.264
37.112
36.963
36.835
36.762
36.758
36.804
36.862
36.899
36.901
36.862
36.79
36.7
36.616
36.544
36.484
36.405
36.306
36.212
36.181
36.301
36.665
37.27
37.983
38.639
39.085
39.255
39.212
39.053
38.86
38.691
38.575
38.482
38.359
38.185
37.987
37.792
37.621
37.49
37.417
37.407
37.449
37.508
37.536
37.503
37.39
37.24
37.122
37.031
36.96
36.908
36.83
36.721
36.609
36.512
36.445
36.478
36.717
37.224
37.938
38.688
39.283
39.624
39.704
39.608
39.441
39.262
39.099
38.946
38.813
38.681
38.507
38.278
38.039
37.857
37.741
37.687
37.681
37.713
37.741
37.726
37.65
37.543
37.418
37.275
37.133
37.011
36.914
36.834
36.734
36.624
36.516
36.422
36.339
36.264
36.216
36.231
36.388
36.759
37.355
38.097
38.786
39.234
39.382
39.311
39.131
38.942
38.783
38.643
38.511
38.374
38.197
37.995
37.784
37.593
37.44
37.346
37.315
37.332
37.349
37.326
37.277
37.198
37.081
36.944
36.813
36.681
36.56
36.447
36.346
36.237
36.127
36.064
36.037
36.013
35.975
35.897
35.79
35.707
35.676
35.73
35.954
36.428
37.104
37.819
38.395
38.725
38.804
38.711
38.521
38.301
38.093
37.912
37.772
37.659
37.512
37.32
37.119
36.955
36.852
36.808
36.8
36.799
36.794
36.796
36.784
36.723
36.612
36.445
36.268
36.129
36.032
35.966
35.912
35.841
35.751
35.683
35.65
35.619
35.556
35.491
35.455
35.45
35.456
35.458
35.515
35.766
36.278
36.959
37.615
38.118
38.382
38.393
38.227
37.994
37.781
37.625
37.501
37.374
37.209
37.009
36.819
36.687
36.596
36.526
36.517
36.566
36.621
36.617
36.545
36.437
36.328
36.246
36.191
36.131
36.036
35.92
35.807
35.722
35.666
35.612
35.537
35.46
35.414
35.412
35.421
35.42
35.424
35.445
35.544
35.835
36.375
37.075
37.721
38.137
38.266
38.17
37.97
37.738
37.509
37.305
37.158
37.035
36.876
36.682
36.498
36.368
36.326
36.378
36.472
36.534
36.539
36.493
36.438
36.372
36.289
36.186
36.068
35.95
35.857
35.778
35.689
35.615
35.568
35.55
35.535
35.496
35.452
35.409
35.438
35.643
36.083
36.712
37.393
37.954
38.265
38.296
38.122
37.857
37.595
37.396
37.269
37.179
37.063
36.904
36.734
36.575
36.446
36.383
36.385
36.428
36.464
36.476
36.465
36.423
36.344
36.236
36.133
36.039
35.942
35.835
35.74
35.68
35.652
35.621
35.569
35.504
35.444
35.448
35.584
35.937
36.54
37.285
37.982
38.449
38.605
38.486
38.223
37.967
37.763
37.608
37.481
37.346
37.173
36.973
36.797
36.672
36.603
36.564
36.551
36.545
36.527
36.505
36.484
36.464
36.406
36.288
36.158
36.055
35.964
35.87
35.759
35.658
35.596
35.569
35.555
35.516
35.45
35.44
35.622
36.081
36.792
37.573
38.194
38.528
38.591
38.465
38.275
38.085
37.915
37.76
37.623
37.5
37.368
37.2
37.022
36.878
36.77
36.681
36.612
36.578
36.575
36.584
36.575
36.526
36.426
36.291
36.139
36.023
35.947
35.864
35.769
35.688
35.633
35.587
35.533
35.47
35.43
35.498
35.768
36.293
37.027
37.795
38.371
38.618
38.572
38.356
38.093
37.87
37.708
37.586
37.498
37.391
37.252
37.085
36.875
36.673
36.532
36.472
36.479
36.518
36.54
36.534
36.514
36.462
36.338
36.183
36.068
35.989
35.908
35.813
35.709
35.604
35.531
35.501
35.474
35.409
35.332
35.305
35.39
35.669
36.195
36.917
37.68
38.263
38.543
38.536
38.369
38.142
37.887
37.652
37.461
37.308
37.179
37.045
36.879
36.677
36.489
36.394
36.383
36.413
36.436
36.432
36.394
36.331
36.26
36.19
36.117
36.017
35.877
35.733
35.633
35.569
35.507
35.433
35.377
35.339
35.295
35.262
35.242
35.212
35.204
35.328
35.683
36.31
37.086
37.804
38.259
38.398
38.302
38.076
37.804
37.532
37.305
37.142
37.027
36.92
36.78
36.594
36.396
36.241
36.181
36.198
36.241
36.269
36.274
36.252
36.192
36.106
36.014
35.923
35.822
35.701
35.575
35.456
35.347
35.247
35.173
35.149
35.141
35.125
35.098
35.057
35.014
34.994
35.023
35.209
35.659
36.379
37.202
37.866
38.216
38.252
38.063
37.758
37.444
37.189
37.002
36.85
36.702
36.553
36.419
36.289
36.167
36.082
36.044
36.035
36.058
36.094
36.111
36.091
36.025
35.927
35.806
35.687
35.592
35.527
35.464
35.398
35.335
35.27
35.191
35.123
35.09
35.078
35.061
35.018
34.962
34.935
35.008
35.263
35.757
36.434
37.164
37.772
38.124
38.183
37.998
37.68
37.356
37.087
36.883
36.733
36.612
36.49
36.364
36.257
36.154
36.073
36.039
36.043
36.075
36.113
36.125
36.103
36.054
35.974
35.855
35.72
35.611
35.539
35.485
35.43
35.353
35.255
35.171
35.117
35.093
35.088
35.088
35.096
35.103
35.154
35.404
35.949
36.724
37.514
38.094
38.349
38.291
38.029
37.717
37.449
37.225
37.042
36.898
36.762
36.61
36.448
36.318
36.233
36.213
36.251
36.309
36.361
36.368
36.33
36.263
36.186
36.117
36.052
35.955
35.835
35.724
35.656
35.625
35.576
35.486
35.39
35.328
35.307
35.295
35.294
35.354
35.557
35.997
36.682
37.462
38.13
38.529
38.612
38.45
38.166
37.878
37.634
37.45
37.302
37.17
37.044
36.917
36.791
36.687
36.64
36.649
36.681
36.699
36.691
36.664
36.624
36.576
36.512
36.415
36.305
36.219
36.15
36.075
35.995
35.915
35.845
35.787
35.747
35.706
35.675
35.687
35.818
36.157
36.735
37.468
38.186
38.732
39.023
39.039
38.843
38.554
38.277
38.056
37.899
37.782
37.661
37.519
37.359
37.227
37.16
37.15
37.167
37.207
37.252
37.267
37.243
37.18
37.097
36.996
36.876
36.751
36.636
36.535
36.451
36.39
36.335
36.266
36.185
36.097
36.017
36.024
36.225
36.682
37.383
38.194
38.916
39.388
39.55
39.46
39.248
39.019
38.814
38.659
38.547
38.449
38.33
38.162
37.976
37.84
37.777
37.773
37.79
37.8
37.775
37.729
37.66
37.577
37.493
37.403
37.3
37.167
37.033
36.924
36.83
36.725
36.618
36.512
36.425
36.401
36.483
36.731
37.212
37.88
38.618
39.288
39.726
39.871
39.79
39.618
39.464
39.335
39.196
39.034
38.865
38.686
38.508
38.347
38.216
38.129
38.085
38.077
38.102
38.114
38.069
37.967
37.86
37.767
37.643
37.48
37.316
37.16
37.007
36.858
36.741
36.667
36.622
36.573
36.49
36.411
36.421
36.646
37.157
37.903
38.712
39.363
39.756
39.894
39.837
39.674
39.487
39.333
39.229
39.157
39.047
38.872
38.651
38.423
38.238
38.104
38.015
37.974
37.957
37.935
37.879
37.793
37.703
37.614
37.514
37.378
37.196
37.015
36.857
36.74
36.65
36.577
36.491
36.368
36.244
36.138
36.058
35.988
35.965
36.088
36.457
37.081
37.864
38.613
39.171
39.462
39.508
39.396
39.232
39.094
39.016
38.967
38.888
38.744
38.524
38.277
38.076
37.956
37.901
37.861
37.798
37.739
37.68
37.604
37.513
37.398
37.26
37.102
36.955
36.812
36.678
36.535
36.404
36.324
36.275
36.206
36.091
35.982
35.899
35.826
35.758
35.687
35.612
35.53
35.465
35.536
35.865
36.478
37.276
38.069
38.664
38.977
39.059
39.01
38.897
38.745
38.584
38.461
38.405
38.351
38.226
38.051
37.867
37.701
37.578
37.502
37.473
37.488
37.517
37.499
37.396
37.224
37.049
36.906
36.775
36.645
36.514
36.382
36.258
36.153
36.06
35.966
35.87
35.773
35.688
35.611
35.549
35.513
35.483
35.444
35.379
35.283
35.219
35.346
35.775
36.471
37.285
38.008
38.499
38.715
38.731
38.661
38.555
38.452
38.379
38.325
38.251
38.119
37.936
37.754
37.61
37.475
37.359
37.311
37.314
37.319
37.285
37.197
37.077
36.932
36.786
36.651
36.514
36.376
36.244
36.096
35.934
35.804
35.721
35.676
35.624
35.528
35.423
35.34
35.281
35.233
35.176
35.107
35.019
34.945
34.961
35.165
35.619
36.292
37.056
37.736
38.203
38.433
38.451
38.336
38.173
38.014
37.879
37.779
37.713
37.644
37.513
37.319
37.124
36.995
36.941
36.942
36.941
36.886
36.798
36.738
36.686
36.589
36.458
36.313
36.17
36.037
35.913
35.786
35.66
35.551
35.455
35.354
35.254
35.174
35.132
35.097
35.033
34.949
34.862
34.806
34.787
34.848
35.091
35.588
36.27
36.995
37.617
38.007
38.136
38.092
37.968
37.809
37.649
37.518
37.415
37.321
37.217
37.082
36.922
36.783
36.664
36.568
36.512
36.503
36.515
36.51
36.458
36.355
36.224
36.097
35.972
35.841
35.703
35.576
35.466
35.342
35.226
35.137
35.075
35.01
34.92
34.837
34.779
34.735
34.7
34.658
34.668
34.825
35.206
35.832
36.584
37.248
37.687
37.867
37.823
37.658
37.461
37.273
37.126
37.031
36.969
36.905
36.789
36.615
36.443
36.332
36.274
36.254
36.264
36.259
36.216
36.156
36.101
36.025
35.916
35.798
35.67
35.519
35.382
35.286
35.218
35.136
35.049
34.95
34.846
34.774
34.731
34.699
34.677
34.663
34.672
34.793
35.144
35.74
36.466
37.121
37.551
37.729
37.708
37.562
37.387
37.229
37.121
37.057
37.0
36.915
36.787
36.626
36.48
36.394
36.355
36.325
36.313
36.336
36.363
36.343
36.264
36.16
36.043
35.913
35.791
35.681
35.569
35.463
35.368
35.284
35.219
35.169
35.11
35.033
34.972
34.945
34.914
34.877
34.895
35.085
35.537
36.202
36.923
37.532
37.913
38.031
37.972
37.872
37.786
37.714
37.65
37.599
37.527
37.42
37.281
37.125
36.986
36.901
36.874
36.866
36.848
36.806
36.752
36.69
36.623
36.544
36.446
36.343
36.24
36.153
36.072
35.971
35.846
35.711
35.606
35.563
35.565
35.547
35.473
35.396
35.356
35.355
35.452
35.716
36.2
36.842
37.529
38.12
38.487
38.622
38.605
38.535
38.467
38.418
38.37
38.307
38.23
38.133
38.024
37.888
37.735
37.607
37.536
37.524
37.55
37.578
37.564
37.477
37.346
37.209
37.073
36.942
36.804
36.669
36.52
36.368
36.239
36.142
36.079
36.029
35.963
35.891
35.818
35.745
35.688
35.632
35.571
35.56
35.694
36.057
36.672
37.418
38.117
38.635
38.927
39.043
39.036
38.979
38.937
38.926
38.921
38.879
38.77
38.6
38.42
38.265
38.133
38.023
37.954
37.941
37.944
37.914
37.843
37.731
37.58
37.397
37.222
37.095
36.993
36.883
36.757
36.625
36.494
36.372
36.25
36.14
36.068
36.024
35.975
35.904
35.8
35.673
35.578
35.598
35.807
36.248
36.884
37.589
38.236
38.733
39.023
39.146
39.191
39.223
39.234
39.21
39.144
39.04
38.898
38.715
38.498
38.279
38.094
37.971
37.902
37.882
37.869
37.833
37.77
37.686
37.578
37.44
37.254
37.045
36.856
36.7
36.582
36.472
36.35
36.22
36.095
35.983
35.897
35.842
35.775
35.679
35.577
35.468
35.356
35.274
35.215
35.19
35.284
35.602
36.183
36.941
37.681
38.239
38.583
38.738
38.755
38.722
38.697
38.687
38.676
38.623
38.508
38.34
38.139
37.933
37.752
37.635
37.586
37.573
37.565
37.53
37.458
37.354
37.224
37.08
36.931
36.778
36.636
36.515
36.383
36.217
36.045
35.896
35.786
35.709
35.636
35.558
35.46
35.366
35.285
35.231
35.185
35.1
34.99
34.918
34.934
35.152
35.655
36.395
37.21
37.896
38.334
38.535
38.595
38.603
38.604
38.616
38.631
38.603
38.54
38.432
38.255
38.035
37.805
37.594
37.452
37.406
37.423
37.463
37.466
37.387
37.243
37.086
36.939
36.789
36.616
36.435
36.273
36.14
36.028
35.913
35.789
35.661
35.538
35.452
35.387
35.308
35.2
35.085
34.998
34.949
34.907
34.826
34.738
34.725
34.898
35.33
36.015
36.823
37.561
38.087
38.366
38.477
38.503
38.506
38.487
38.434
38.373
38.312
38.222
38.061
37.827
37.563
37.367
37.285
37.281
37.295
37.264
37.194
37.102
36.996
36.87
36.737
36.592
36.429
36.267
36.114
35.973
35.839
35.698
35.561
35.447
35.343
35.229
35.11
35.006
34.92
34.852
34.805
34.755
34.683
34.594
34.491
34.392
34.379
34.557
34.999
35.688
36.495
37.237
37.77
38.047
38.108
38.047
37.957
37.897
37.873
37.883
37.874
37.798
37.641
37.433
37.239
37.111
37.027
36.959
36.902
36.862
36.839
36.809
36.758
36.666
36.523
36.341
36.171
36.015
35.864
35.719
35.574
35.448
35.338
35.235
35.153
35.057
34.935
34.812
34.701
34.61
34.534
34.48
34.446
34.391
34.33
34.286
34.307
34.491
34.922
35.596
36.381
37.07
37.526
37.732
37.763
37.718
37.679
37.659
37.642
37.625
37.587
37.503
37.344
37.152
36.981
36.882
36.866
36.887
36.903
36.9
36.861
36.782
36.69
36.595
36.493
36.368
36.218
36.077
35.96
35.865
35.782
35.699
35.617
35.555
35.488
35.395
35.304
35.23
35.152
35.053
34.954
34.894
34.902
35.054
35.436
36.062
36.816
37.494
37.959
38.2
38.263
38.222
38.137
38.038
37.956
37.887
37.802
37.668
37.485
37.286
37.163
37.145
37.196
37.265
37.306
37.303
37.251
37.168
37.076
36.965
36.808
36.64
36.51
36.409
36.3
36.171
36.046
35.943
35.858
35.792
35.756
35.734
35.673
35.575
35.528
35.656
36.059
36.729
37.541
38.307
38.868
39.177
39.302
39.342
39.356
39.377
39.382
39.351
39.295
39.219
39.101
38.916
38.687
38.496
38.392
38.371
38.387
38.394
38.361
38.267
38.123
37.962
37.807
37.657
37.494
37.316
37.138
36.982
36.839
36.702
36.574
36.465
36.371
36.267
36.168
36.056
35.955
35.963
36.223
36.784
37.574
38.476
39.302
39.9
40.265
40.495
40.659
40.797
40.918
41.013
41.067
41.058
40.936
40.703
40.425
40.16
39.929
39.725
39.563
39.462
39.393
39.308
39.174
39.004
38.836
38.657
38.449
38.203
37.931
37.67
37.462
37.285
37.115
36.954
36.787
36.616
36.438
36.263
36.098
35.938
35.795
35.682
35.59
35.485
35.38
35.335
35.455
35.85
36.551
37.454
38.383
39.177
39.756
40.106
40.309
40.475
40.636
40.783
40.882
40.898
40.819
40.636
40.347
39.991
39.628
39.326
39.133
39.011
38.91
38.814
38.699
38.536
38.324
38.106
37.881
37.643
37.397
37.17
36.963
36.747
36.521
36.303
36.117
35.938
35.774
35.639
35.52
35.393
35.266
35.146
35.014
34.877
34.743
34.594
34.438
34.318
34.251
34.318
34.646
35.295
36.175
37.112
37.95
38.588
38.966
39.137
39.222
39.308
39.39
39.427
39.408
39.313
39.132
38.873
38.551
38.229
37.974
37.806
37.72
37.695
37.664
37.579
37.423
37.216
36.982
36.751
36.522
36.28
36.042
35.823
35.603
35.387
35.199
35.045
34.919
34.788
34.648
34.513
34.399
34.304
34.206
34.081
33.953
33.858
33.799
33.737
33.62
33.479
33.413
33.563
34.038
34.81
35.742
36.651
37.369
37.824
38.058
38.161
38.227
38.28
38.313
38.339
38.356
38.324
38.177
37.904
37.558
37.253
37.056
36.943
36.887
36.869
36.856
36.795
36.669
36.51
36.333
36.139
35.927
35.713
35.512
35.318
35.108
34.913
34.773
34.677
34.583
34.488
34.372
34.234
34.097
33.987
33.912
33.845
33.768
33.682
33.577
33.46
33.368
33.318
33.341
33.538
34.024
34.8
35.727
36.581
37.196
37.538
37.657
37.676
37.705
37.783
37.876
37.931
37.919
37.83
37.672
37.457
37.232
37.039
36.886
36.764
36.679
36.637
36.614
36.56
36.459
36.336
36.191
36.001
35.787
35.572
35.384
35.23
35.102
34.977
34.839
34.693
34.569
34.47
34.385
34.282
34.157
34.041
33.951
33.871
33.772
33.659
33.553
33.465
33.402
33.36
33.352
33.453
33.794
34.448
35.317
36.188
36.868
37.285
37.488
37.553
37.543
37.508
37.473
37.454
37.44
37.383
37.273
37.123
36.95
36.806
36.724
36.703
36.718
36.74
36.741
36.705
36.62
36.496
36.337
36.163
35.998
35.845
35.688
35.536
35.385
35.248
35.123
34.99
34.852
34.772
34.736
34.679
34.593
34.495
34.402
34.328
34.273
34.215
34.133
34.039
33.95
33.941
34.151
34.679
35.478
36.379
37.195
37.794
38.122
38.233
38.209
38.133
38.065
38.04
38.022
37.974
37.89
37.784
37.659
37.497
37.333
37.234
37.197
37.194
37.187
37.133
37.037
36.923
36.788
36.64
36.484
36.308
36.112
35.925
35.757
35.595
35.437
35.305
35.189
35.073
34.963
34.871
34.802
34.74
34.647
34.531
34.424
34.333
34.26
34.206
34.151
34.077
33.984
33.905
33.945
34.232
34.831
35.678
36.619
37.454
38.039
38.346
38.45
38.446
38.382
38.302
38.251
38.243
38.231
38.164
38.044
37.917
37.806
37.73
37.691
37.681
37.699
37.708
37.663
37.563
37.451
37.342
37.237
37.104
36.921
36.703
36.481
36.271
36.104
35.989
35.884
35.761
35.613
35.473
35.369
35.283
35.205
35.12
35.019
34.919
34.83
34.742
34.652
34.555
34.458
34.407
34.547
35.025
35.844
36.841
37.794
38.525
38.968
39.146
39.169
39.161
39.172
39.205
39.24
39.238
39.169
39.044
38.896
38.753
38.65
38.598
38.576
38.55
38.52
38.479
38.41
38.306
38.188
38.071
37.927
37.732
37.488
37.225
37.003
36.846
36.735
36.62
36.471
36.341
36.247
36.15
36.035
35.899
35.752
35.63
35.519
35.396
35.276
35.158
35.037
34.993
35.158
35.628
36.395
37.356
38.346
39.161
39.699
39.991
40.112
40.16
40.213
40.295
40.379
40.432
40.441
40.36
40.167
39.906
39.635
39.437
39.357
39.351
39.343
39.287
39.176
39.032
38.874
38.696
38.487
38.259
38.014
37.772
37.556
37.349
37.159
36.995
36.843
36.704
36.582
36.481
36.359
36.195
36.031
35.904
35.837
35.894
36.191
36.815
37.716
38.737
39.685
40.419
40.891
41.162
41.344
41.49
41.6
41.685
41.717
41.64
41.445
41.156
40.814
40.469
40.199
40.033
39.932
39.86
39.796
39.719
39.6
39.423
39.188
38.925
38.644
38.343
38.042
37.751
37.499
37.278
37.051
36.804
36.571
36.384
36.274
36.331
36.656
37.26
38.111
39.097
40.051
40.847
41.4
41.683
41.775
41.784
41.768
41.762
41.736
41.605
41.318
40.898
40.422
39.995
39.67
39.46
39.352
39.299
39.24
39.126
38.937
38.676
38.379
38.062
37.73
37.408
37.11
36.823
36.549
36.284
36.041
35.893
35.968
36.383
37.199
38.324
39.517
40.552
41.294
41.763
42.041
42.199
42.278
42.307
42.302
42.25
42.098
41.784
41.295
40.711
40.152
39.692
39.358
39.14
38.982
38.837
38.68
38.489
38.237
37.921
37.558
37.187
36.834
36.479
36.154
35.867
35.603
35.347
35.11
34.941
34.88
35.047
35.594
36.571
37.858
39.218
40.415
41.319
41.938
42.349
42.646
42.892
43.093
43.205
43.195
43.026
42.659
42.097
41.404
40.7
40.089
39.622
39.309
39.101
38.92
38.696
38.408
38.074
37.727
37.375
36.996
36.587
36.181
35.815
35.507
35.237
34.973
34.696
34.427
34.178
33.947
33.739
33.552
33.394
33.248
33.095
32.94
32.796
32.664
32.555
32.456
32.35
32.24
32.119
32.038
32.143
32.614
33.576
34.955
36.526
38.033
39.274
40.203
40.871
41.369
41.774
42.116
42.358
42.471
42.448
42.267
41.899
41.351
40.71
40.093
39.605
39.251
38.993
38.787
38.604
38.394
38.157
37.882
37.549
37.178
36.788
36.4
36.033
35.675
35.335
35.015
34.7
34.415
34.194
34.021
33.872
33.698
33.491
33.297
33.133
32.987
32.843
32.688
32.538
32.415
32.31
32.202
32.125
32.173
32.506
33.244
34.383
35.794
37.218
38.419
39.315
39.955
40.406
40.738
41.007
41.223
41.359
41.371
41.232
40.918
40.435
39.85
39.266
38.766
38.4
38.157
37.989
37.832
37.656
37.43
37.16
36.85
36.5
36.118
35.731
35.363
35.023
34.747
34.497
34.226
33.939
33.681
33.481
33.327
33.188
33.042
32.899
32.757
32.61
32.456
32.306
32.167
32.048
31.958
31.965
32.216
32.839
33.894
35.269
36.699
37.929
38.819
39.386
39.729
39.953
40.104
40.202
40.237
40.183
40.037
39.786
39.426
38.989
38.539
38.16
37.88
37.69
37.575
37.483
37.357
37.166
36.916
36.61
36.26
35.915
35.581
35.264
34.964
34.664
34.353
34.054
33.812
33.623
33.449
33.262
33.087
32.949
32.853
32.758
32.64
32.495
32.32
32.16
32.104
32.306
32.89
33.866
35.132
36.49
37.712
38.617
39.162
39.424
39.537
39.603
39.664
39.692
39.633
39.459
39.162
38.77
38.326
37.893
37.541
37.303
37.15
37.066
37.001
36.884
36.698
36.437
36.141
35.86
35.599
35.318
35.005
34.68
34.382
34.14
33.912
33.681
33.447
33.247
33.103
33.009
32.921
32.808
32.68
32.613
32.779
33.349
34.352
35.634
36.953
38.097
38.915
39.395
39.612
39.653
39.608
39.537
39.451
39.318
39.097
38.755
38.344
37.948
37.597
37.312
37.105
36.973
36.899
36.85
36.763
36.587
36.336
36.046
35.737
35.44
35.163
34.899
34.628
34.331
34.042
33.801
33.601
33.447
33.445
33.794
34.604
35.799
37.147
38.392
39.347
39.921
40.152
40.165
40.063
39.922
39.755
39.546
39.281
38.94
38.516
38.031
37.542
37.171
36.974
36.901
36.855
36.772
36.638
36.439
36.19
35.923
35.66
35.391
35.096
34.775
34.458
34.188
34.061
34.234
34.856
35.918
37.259
38.618
39.734
40.475
40.843
40.939
40.888
40.761
40.586
40.362
40.065
39.67
39.193
38.69
38.188
37.739
37.389
37.143
36.959
36.809
36.681
36.543
36.358
36.127
35.838
35.48
35.078
34.676
34.323
34.1
34.19
34.755
35.821
37.222
38.677
39.93
40.82
41.353
41.614
41.684
41.614
41.461
41.232
40.919
40.497
39.967
39.344
38.687
38.097
37.638
37.307
37.07
36.899
36.755
36.584
36.354
36.061
35.742
35.407
35.053
34.688
34.312
33.966
33.791
34.004
34.757
35.992
37.502
39.011
40.285
41.188
41.708
41.943
42.0
41.956
41.843
41.645
41.323
40.849
40.224
39.505
38.782
38.157
37.665
37.305
37.034
36.799
36.568
36.333
36.085
35.793
35.445
35.061
34.673
34.302
33.932
33.559
33.212
32.954
32.899
33.209
34.051
35.428
37.136
38.843
40.26
41.265
41.867
42.153
42.237
42.214
42.129
41.961
41.664
41.207
40.612
39.926
39.176
38.438
37.824
37.369
37.038
36.785
36.563
36.332
36.069
35.765
35.42
35.056
34.681
34.297
33.89
33.478
33.097
32.749
32.434
32.177
31.968
31.791
31.624
31.438
31.226
31.017
30.841
30.718
30.633
30.546
30.466
30.524
30.948
31.918
33.421
35.283
37.216
38.904
40.148
40.929
41.359
41.596
41.753
41.827
41.809
41.695
41.43
40.97
40.357
39.701
39.106
38.614
38.252
37.997
37.814
37.635
37.404
37.117
36.794
36.424
36.047
35.691
35.314
34.909
34.491
34.092
33.741
33.455
33.214
32.977
32.721
32.481
32.258
32.051
31.886
31.753
31.625
31.499
31.375
31.24
31.126
31.189
31.639
32.634
34.163
36.005
37.828
39.349
40.417
41.056
41.37
41.485
41.509
41.476
41.385
41.207
40.897
40.457
39.911
39.327
38.815
38.437
38.153
37.902
37.681
37.504
37.324
37.087
36.778
36.415
36.017
35.614
35.231
34.869
34.51
34.169
33.841
33.505
33.184
32.921
32.713
32.526
32.353
32.197
32.044
31.898
31.77
31.647
31.514
31.491
31.806
32.658
34.072
35.839
37.633
39.142
40.201
40.81
41.059
41.083
41.007
40.902
40.764
40.532
40.185
39.75
39.282
38.827
38.392
37.997
37.682
37.459
37.294
37.131
36.951
36.74
36.481
36.152
35.783
35.423
35.074
34.719
34.352
33.996
33.679
33.382
33.113
32.878
32.667
32.48
32.306
32.149
32.004
31.869
31.754
31.753
32.047
32.811
34.087
35.745
37.487
39.004
40.105
40.751
40.991
40.954
40.794
40.603
40.406
40.156
39.8
39.334
38.828
38.36
37.975
37.695
37.517
37.398
37.289
37.183
37.065
36.89
36.634
36.323
35.983
35.605
35.204
34.807
34.438
34.115
33.837
33.59
33.363
33.148
32.956
32.864
33.051
33.691
34.848
36.408
38.094
39.586
40.674
41.288
41.492
41.422
41.198
40.906
40.603
40.268
39.866
39.373
38.829
38.31
37.899
37.638
37.482
37.372
37.273
37.151
36.958
36.699
36.412
36.118
35.822
35.496
35.135
34.761
34.396
34.057
33.752
33.581
33.736
34.41
35.653
37.317
39.06
40.559
41.629
42.239
42.482
42.483
42.343
42.121
41.818
41.442
41.006
40.464
39.823
39.171
38.621
38.219
37.955
37.776
37.637
37.487
37.29
37.034
36.733
36.39
36.007
35.605
35.198
34.788
34.389
34.071
34.025
34.472
35.534
37.132
38.96
40.677
42.051
42.974
43.46
43.602
43.532
43.352
43.087
42.727
42.262
41.683
41.001
40.275
39.598
39.022
38.537
38.144
37.853
37.626
37.4
37.148
36.845
36.474
36.061
35.646
35.245
34.84
34.423
34.009
33.701
33.691
34.209
35.381
37.106
39.068
40.909
42.38
43.401
44.0
44.26
44.274
44.132
43.868
43.506
43.033
42.423
41.691
40.865
40.027
39.249
38.617
38.14
37.794
37.538
37.314
37.064
36.745
36.35
35.899
35.418
34.921
34.442
33.991
33.562
33.176
32.835
32.535
32.266
32.006
31.75
31.546
31.481
31.765
32.626
34.162
36.224
38.453
40.476
42.062
43.131
43.743
44.032
44.102
44.005
43.774
43.432
42.964
42.343
41.587
40.741
39.891
39.148
38.598
38.227
37.949
37.679
37.397
37.099
36.761
36.359
35.897
35.427
34.97
34.519
34.05
33.579
33.15
32.77
32.438
32.133
31.849
31.604
31.381
31.159
30.934
30.707
30.496
30.331
30.21
30.116
30.023
29.958
30.109
30.729
32.012
33.932
36.235
38.536
40.477
41.873
42.743
43.187
43.337
43.336
43.253
43.074
42.755
42.264
41.622
40.881
40.127
39.456
38.913
38.504
38.215
37.989
37.782
37.551
37.265
36.928
36.543
36.112
35.661
35.196
34.718
34.265
33.862
33.481
33.105
32.76
32.454
32.19
31.961
31.768
31.587
31.388
31.201
31.037
30.892
30.74
30.565
30.405
30.346
30.567
31.295
32.651
34.575
36.808
38.97
40.734
41.959
42.699
43.039
43.08
42.935
42.713
42.434
42.046
41.536
40.931
40.276
39.623
39.024
38.553
38.215
37.949
37.708
37.466
37.202
36.919
36.61
36.245
35.813
35.341
34.873
34.447
34.052
33.64
33.216
32.849
32.549
32.291
32.052
31.813
31.597
31.4
31.216
31.042
30.883
30.73
30.59
30.482
30.505
30.885
31.843
33.423
35.467
37.666
39.647
41.127
42.031
42.431
42.468
42.293
42.026
41.713
41.31
40.807
40.221
39.604
38.995
38.468
38.086
37.829
37.664
37.543
37.392
37.164
36.87
36.553
36.237
35.911
35.523
35.071
34.599
34.154
33.745
33.368
33.008
32.671
32.391
32.157
31.969
31.807
31.648
31.487
31.432
31.716
32.546
33.958
35.824
37.853
39.699
41.13
42.033
42.436
42.466
42.254
41.912
41.492
41.001
40.424
39.777
39.113
38.503
38.014
37.683
37.504
37.43
37.362
37.237
37.044
36.774
36.455
36.115
35.751
35.344
34.895
34.452
34.048
33.687
33.345
33.009
32.698
32.458
32.454
32.921
34.007
35.673
37.677
39.65
41.257
42.338
42.902
43.057
42.912
42.597
42.193
41.703
41.124
40.448
39.706
38.989
38.37
37.887
37.555
37.342
37.196
37.077
36.935
36.738
36.478
36.143
35.734
35.271
34.824
34.443
34.091
33.717
33.312
32.942
32.795
33.137
34.163
35.867
37.965
40.051
41.827
43.129
43.891
44.197
44.197
43.996
43.677
43.265
42.72
42.044
41.279
40.478
39.714
39.062
38.54
38.156
37.882
37.651
37.41
37.133
36.828
36.489
36.097
35.665
35.214
34.748
34.278
33.824
33.419
33.177
33.319
34.094
35.597
37.652
39.862
41.842
43.366
44.378
44.921
45.102
45.043
44.802
44.394
43.858
43.216
42.444
41.548
40.614
39.725
38.954
38.349
37.906
37.602
37.362
37.095
36.759
36.372
35.97
35.547
35.081
34.591
34.114
33.659
33.23
32.815
32.424
32.066
31.845
32.011
32.833
34.426
36.633
39.075
41.327
43.064
44.195
44.818
45.075
45.101
44.948
44.616
44.112
43.467
42.692
41.801
40.823
39.868
39.038
38.361
37.84
37.482
37.211
36.925
36.595
36.21
35.793
35.363
34.888
34.375
33.848
33.317
32.813
32.374
31.995
31.643
31.305
31.007
30.739
30.469
30.206
29.961
29.766
29.615
29.49
29.357
29.192
29.057
28.972
28.918
29.02
29.525
30.7
32.652
35.214
37.967
40.456
42.384
43.67
44.373
44.631
44.611
44.433
44.186
43.861
43.39
42.743
41.95
41.097
40.3
39.612
39.065
38.679
38.397
38.16
37.913
37.606
37.233
36.805
36.337
35.839
35.305
34.761
34.216
33.682
33.183
32.731
32.32
31.964
31.654
31.368
31.118
30.917
30.75
30.585
30.409
30.245
30.096
29.949
29.888
30.145
30.981
32.535
34.709
37.21
39.639
41.618
42.981
43.749
44.053
44.053
43.863
43.554
43.167
42.659
42.015
41.263
40.455
39.685
39.021
38.495
38.123
37.865
37.672
37.464
37.19
36.853
36.483
36.089
35.655
35.188
34.674
34.16
33.679
33.232
32.834
32.472
32.122
31.793
31.518
31.283
31.081
30.917
30.775
30.658
30.661
31.029
32.036
33.779
36.069
38.496
40.637
42.227
43.179
43.561
43.525
43.249
42.871
42.405
41.833
41.157
40.414
39.657
38.951
38.361
37.898
37.572
37.388
37.293
37.197
37.007
36.701
36.34
35.96
35.539
35.071
34.576
34.085
33.628
33.231
32.88
32.547
32.219
31.906
31.672
31.687
32.203
33.414
35.303
37.585
39.826
41.665
42.924
43.607
43.797
43.609
43.196
42.658
42.043
41.326
40.504
39.637
38.809
38.108
37.583
37.237
37.015
36.862
36.75
36.631
36.446
36.151
35.768
35.341
34.891
34.428
33.966
33.52
33.103
32.696
32.292
31.938
31.801
32.152
33.221
35.031
37.349
39.786
41.912
43.466
44.386
44.716
44.607
44.242
43.739
43.169
42.548
41.828
41.0
40.113
39.252
38.509
37.933
37.534
37.269
37.088
36.925
36.71
36.405
36.013
35.578
35.139
34.682
34.2
33.699
33.198
32.713
32.314
32.186
32.597
33.75
35.63
37.988
40.43
42.576
44.149
45.069
45.434
45.418
45.155
44.743
44.22
43.581
42.806
41.897
40.896
39.882
38.951
38.189
37.633
37.255
36.99
36.753
36.479
36.148
35.776
35.36
34.889
34.375
33.834
33.28
32.762
32.314
31.929
31.559
31.19
30.925
31.019
31.797
33.421
35.759
38.442
41.018
43.132
44.617
45.493
45.876
45.893
45.664
45.262
44.729
44.064
43.249
42.274
41.175
40.068
39.065
38.23
37.6
37.172
36.868
36.608
36.319
35.961
35.555
35.108
34.619
34.114
33.617
33.12
32.597
32.061
31.548
31.09
30.708
30.385
30.105
29.857
29.629
29.401
29.189
29.017
28.874
28.739
28.597
28.525
28.724
29.505
31.085
33.462
36.351
39.272
41.787
43.643
44.804
45.377
45.502
45.337
44.984
44.522
43.972
43.295
42.48
41.57
40.638
39.773
39.04
38.477
38.08
37.788
37.529
37.227
36.886
36.514
36.086
35.596
35.049
34.486
33.955
33.454
32.945
32.43
31.95
31.53
31.17
30.87
30.599
30.339
30.099
29.895
29.728
29.58
29.419
29.272
29.214
29.42
30.169
31.674
33.936
36.682
39.477
41.905
43.661
44.66
45.022
44.982
44.719
44.295
43.726
43.035
42.261
41.449
40.618
39.798
39.049
38.426
37.957
37.621
37.379
37.177
36.946
36.643
36.246
35.772
35.261
34.736
34.216
33.726
33.235
32.724
32.212
31.735
31.334
31.017
30.755
30.508
30.263
30.05
29.884
29.742
29.585
29.433
29.407
29.758
30.759
32.559
35.032
37.806
40.424
42.5
43.853
44.521
44.633
44.368
43.887
43.29
42.622
41.887
41.097
40.288
39.518
38.819
38.224
37.746
37.37
37.071
36.816
36.585
36.334
36.032
35.65
35.192
34.689
34.166
33.655
33.172
32.71
32.254
31.803
31.368
30.978
30.664
30.415
30.211
30.025
29.833
29.649
29.596
29.908
30.864
32.599
34.981
37.651
40.144
42.092
43.365
44.012
44.155
43.919
43.41
42.739
42.014
41.264
40.479
39.663
38.852
38.107
37.5
37.071
36.84
36.744
36.65
36.487
36.238
35.906
35.518
35.103
34.672
34.208
33.724
33.231
32.732
32.256
31.844
31.504
31.211
30.942
30.686
30.479
30.49
31.0
32.268
34.307
36.826
39.371
41.533
43.083
43.963
44.243
44.046
43.538
42.889
42.162
41.354
40.478
39.568
38.706
38.005
37.509
37.193
37.018
36.927
36.842
36.701
36.478
36.167
35.804
35.422
35.001
34.528
34.021
33.54
33.097
32.675
32.26
31.879
31.638
31.767
32.527
34.06
36.282
38.844
41.262
43.152
44.339
44.882
44.931
44.62
44.053
43.337
42.553
41.716
40.829
39.922
39.089
38.397
37.856
37.479
37.25
37.109
37.008
36.864
36.61
36.252
35.833
35.399
34.95
34.472
33.996
33.526
33.07
32.66
32.452
32.736
33.779
35.631
38.063
40.674
43.054
44.867
45.977
46.447
46.445
46.152
45.681
45.076
44.354
43.511
42.551
41.517
40.481
39.544
38.796
38.258
37.881
37.597
37.345
37.088
36.791
36.411
35.976
35.506
35.007
34.495
33.984
33.487
33.009
32.586
32.356
32.593
33.589
35.416
37.902
40.635
43.137
45.065
46.293
46.879
47.002
46.827
46.445
45.894
45.205
44.359
43.353
42.217
41.016
39.872
38.919
38.224
37.752
37.412
37.128
36.849
36.543
36.167
35.733
35.252
34.729
34.174
33.606
33.076
32.576
32.124
31.723
31.346
30.992
30.667
30.432
30.451
30.984
32.299
34.462
37.245
40.185
42.797
44.753
45.961
46.487
46.508
46.228
45.761
45.143
44.378
43.459
42.4
41.262
40.127
39.074
38.194
37.535
37.072
36.746
36.482
36.212
35.9
35.538
35.124
34.661
34.167
33.641
33.087
32.536
32.024
31.56
31.127
30.729
30.364
30.022
29.742
29.529
29.365
29.222
29.066
28.913
28.898
29.293
30.411
32.422
35.18
38.254
41.148
43.48
45.055
45.871
46.066
45.838
45.384
44.822
44.184
43.434
42.534
41.541
40.522
39.562
38.764
38.166
37.764
37.515
37.32
37.106
36.831
36.482
36.056
35.577
35.077
34.562
34.009
33.429
32.889
32.422
32.011
31.649
31.309
30.987
30.702
30.473
30.285
30.123
29.992
29.998
30.433
31.609
33.659
36.406
39.402
42.132
44.204
45.456
45.973
45.954
45.591
45.029
44.333
43.537
42.662
41.702
40.687
39.685
38.791
38.106
37.666
37.425
37.29
37.15
36.936
36.639
36.269
35.831
35.321
34.772
34.21
33.641
33.085
32.566
32.1
31.701
31.359
31.048
30.773
30.517
30.305
30.289
30.751
31.995
34.13
36.914
39.856
42.434
44.295
45.357
45.745
45.659
45.255
44.667
43.965
43.171
42.263
41.245
40.21
39.241
38.393
37.734
37.289
37.025
36.86
36.698
36.459
36.121
35.703
35.22
34.694
34.155
33.618
33.077
32.545
32.044
31.606
31.223
30.864
30.522
30.219
29.979
29.956
30.472
31.819
34.042
36.859
39.823
42.485
44.512
45.757
46.259
46.201
45.781
45.176
44.493
43.725
42.853
41.882
40.829
39.751
38.744
37.916
37.31
36.9
36.605
36.369
36.121
35.803
35.411
34.968
34.473
33.929
33.362
32.806
32.283
31.783
31.295
30.822
30.378
29.984
29.668
29.416
29.182
28.972
28.87
29.042
29.803
31.424
33.921
37.008
40.17
42.882
44.808
45.898
46.277
46.143
45.699
45.098
44.396
43.603
42.725
41.759
40.719
39.674
38.709
37.895
37.285
36.858
36.558
36.317
36.067
35.744
35.313
34.814
34.292
33.751
33.211
32.67
32.123
31.589
31.072
30.59
30.144
29.763
29.457
29.211
28.998
28.792
28.598
28.436
28.438
28.881
30.091
32.214
35.07
38.226
41.165
43.483
44.978
45.664
45.686
45.26
44.606
43.894
43.168
42.387
41.522
40.567
39.563
38.61
37.791
37.163
36.734
36.438
36.204
35.96
35.68
35.357
34.97
34.488
33.928
33.329
32.716
32.124
31.578
31.079
30.619
30.205
29.825
29.447
29.094
28.794
28.558
28.377
28.238
28.122
28.036
28.174
28.884
30.46
32.924
35.965
39.084
41.765
43.675
44.75
45.117
44.953
44.44
43.724
42.895
42.021
41.129
40.223
39.329
38.503
37.779
37.189
36.762
36.497
36.32
36.139
35.897
35.583
35.222
34.805
34.323
33.806
33.3
32.804
32.295
31.781
31.283
30.821
30.42
30.094
29.813
29.539
29.266
29.092
29.28
30.136
31.841
34.329
37.265
40.159
42.545
44.176
45.003
45.133
44.766
44.107
43.303
42.421
41.47
40.46
39.459
38.559
37.816
37.235
36.81
36.536
36.377
36.275
36.169
35.988
35.701
35.322
34.885
34.408
33.892
33.374
32.88
32.392
31.916
31.471
31.06
30.757
30.769
31.422
32.964
35.349
38.178
40.938
43.202
44.715
45.432
45.487
45.089
44.418
43.585
42.664
41.687
40.671
39.646
38.67
37.84
37.239
36.851
36.612
36.445
36.287
36.096
35.831
35.5
35.135
34.75
34.315
33.815
33.286
32.771
32.292
31.869
31.615
31.861
32.942
34.952
37.678
40.624
43.25
45.206
46.375
46.847
46.763
46.302
45.624
44.83
43.956
42.995
41.916
40.756
39.638
38.701
37.99
37.472
37.111
36.857
36.647
36.4
36.079
35.686
35.22
34.709
34.2
33.707
33.208
32.692
32.186
31.808
31.808
32.531
34.182
36.67
39.629
42.571
45.032
46.724
47.617
47.85
47.616
47.104
46.436
45.651
44.725
43.651
42.473
41.249
40.06
39.016
38.191
37.6
37.194
36.89
36.609
36.28
35.879
35.438
34.968
34.459
33.917
33.362
32.816
32.304
31.82
31.352
30.919
30.611
30.655
31.422
33.162
35.814
38.991
42.124
44.721
46.508
47.47
47.74
47.534
47.073
46.478
45.753
44.859
43.78
42.528
41.187
39.873
38.71
37.802
37.166
36.723
36.378
36.062
35.73
35.391
35.027
34.59
34.085
33.523
32.91
32.28
31.679
31.115
30.587
30.129
29.746
29.411
29.127
28.883
28.649
28.419
28.215
28.06
27.952
27.964
28.335
29.439
31.529
34.522
38.015
41.421
44.217
46.13
47.159
47.461
47.288
46.853
46.277
45.573
44.724
43.712
42.563
41.35
40.174
39.164
38.39
37.867
37.54
37.303
37.063
36.787
36.458
36.064
35.596
35.066
34.49
33.906
33.336
32.773
32.215
31.692
31.231
30.842
30.527
30.264
30.029
29.816
29.629
29.525
29.76
30.733
32.702
35.529
38.76
41.843
44.325
45.956
46.713
46.767
46.349
45.662
44.839
43.949
42.973
41.882
40.725
39.604
38.608
37.8
37.233
36.908
36.748
36.623
36.432
36.167
35.851
35.466
34.987
34.414
33.792
33.185
32.61
32.08
31.599
31.155
30.755
30.412
30.098
29.812
29.644
29.824
30.683
32.468
35.138
38.317
41.427
43.941
45.603
46.407
46.512
46.127
45.47
44.678
43.817
42.867
41.776
40.589
39.398
38.337
37.489
36.88
36.493
36.263
36.111
35.942
35.693
35.347
34.907
34.398
33.865
33.322
32.756
32.169
31.586
31.058
30.633
30.286
29.961
29.622
29.294
29.087
29.276
30.221
32.147
34.952
38.229
41.446
44.099
45.881
46.784
47.006
46.76
46.236
45.572
44.821
43.955
42.922
41.719
40.422
39.165
38.102
37.308
36.749
36.378
36.133
35.909
35.617
35.248
34.841
34.38
33.862
33.306
32.711
32.082
31.467
30.923
30.459
30.048
29.694
29.381
29.112
28.878
28.661
28.547
28.815
29.847
31.865
34.765
38.15
41.457
44.174
46.019
46.964
47.182
46.93
46.407
45.704
44.879
43.962
42.948
41.82
40.609
39.399
38.303
37.431
36.802
36.371
36.082
35.85
35.599
35.284
34.879
34.41
33.884
33.311
32.7
32.086
31.499
30.929
30.401
29.933
29.525
29.142
28.776
28.452
28.202
28.019
27.88
27.754
27.656
27.815
28.608
30.35
33.082
36.461
39.915
42.895
45.042
46.251
46.634
46.436
45.88
45.124
44.267
43.35
42.379
41.347
40.273
39.207
38.247
37.461
36.878
36.473
36.165
35.887
35.615
35.332
34.975
34.512
33.978
33.398
32.791
32.182
31.585
31.016
30.484
29.984
29.519
29.103
28.756
28.469
28.213
27.983
27.787
27.623
27.475
27.327
27.237
27.41
28.202
29.905
32.539
35.832
39.267
42.28
44.473
45.726
46.141
45.938
45.338
44.521
43.603
42.644
41.67
40.687
39.699
38.755
37.93
37.293
36.872
36.616
36.416
36.217
35.987
35.708
35.365
34.948
34.446
33.883
33.289
32.707
32.15
31.602
31.084
30.608
30.182
29.816
29.509
29.236
28.983
28.745
28.543
28.512
28.985
30.308
32.592
35.595
38.83
41.731
43.902
45.216
45.713
45.562
44.963
44.089
43.082
42.002
40.894
39.794
38.748
37.829
37.11
36.622
36.35
36.237
36.202
36.155
36.023
35.764
35.389
34.946
34.477
33.98
33.445
32.9
32.38
31.885
31.411
30.943
30.491
30.103
29.968
30.389
31.66
33.862
36.738
39.786
42.504
44.514
45.647
45.974
45.68
44.994
44.114
43.141
42.077
40.915
39.729
38.631
37.696
36.991
36.538
36.312
36.217
36.137
36.003
35.796
35.506
35.151
34.754
34.318
33.847
33.336
32.807
32.292
31.788
31.34
31.144
31.533
32.825
35.106
38.095
41.232
43.964
45.926
47.014
47.337
47.088
46.458
45.623
44.707
43.735
42.688
41.573
40.422
39.331
38.414
37.722
37.246
36.934
36.716
36.519
36.275
35.955
35.568
35.122
34.616
34.055
33.483
32.943
32.421
31.933
31.605
31.76
32.786
34.867
37.791
41.04
44.019
46.276
47.669
48.268
48.243
47.804
47.142
46.352
45.457
44.442
43.291
42.015
40.709
39.506
38.501
37.746
37.209
36.832
36.539
36.252
35.932
35.565
35.132
34.631
34.09
33.534
32.97
32.429
31.91
31.388
30.909
30.588
30.684
31.58
33.505
36.354
39.687
42.911
45.496
47.161
47.931
48.012
47.671
47.127
46.442
45.601
44.594
43.406
42.076
40.689
39.373
38.22
37.311
36.673
36.257
35.969
35.706
35.397
35.03
34.611
34.153
33.624
33.027
32.419
31.839
31.29
30.78
30.306
29.875
29.511
29.215
28.975
28.742
28.546
28.6
29.292
30.986
33.756
37.243
40.807
43.848
45.981
47.162
47.564
47.426
46.944
46.249
45.42
44.497
43.467
42.323
41.087
39.849
38.707
37.744
37.052
36.614
36.336
36.123
35.89
35.589
35.193
34.705
34.188
33.675
33.137
32.569
32.003
31.471
30.992
30.566
30.159
29.763
29.43
29.344
29.836
31.242
33.624
36.688
39.895
42.69
44.724
45.913
46.337
46.208
45.749
45.101
44.328
43.439
42.409
41.225
39.953
38.723
37.66
36.818
36.213
35.799
35.526
35.326
35.101
34.787
34.401
33.98
33.544
33.079
32.559
31.993
31.444
30.956
30.501
30.074
29.756
29.803
30.535
32.164
34.603
37.506
40.385
42.805
44.48
45.339
45.479
45.12
44.511
43.774
42.922
41.94
40.817
39.595
38.383
37.274
36.342
35.632
35.127
34.798
34.605
34.453
34.252
33.979
33.614
33.164
32.685
32.21
31.735
31.247
30.767
30.381
30.328
30.917
32.369
34.651
37.397
40.103
42.296
43.734
44.395
44.417
44.014
43.36
42.555
41.612
40.518
39.289
38.018
36.854
35.904
35.198
34.747
34.506
34.374
34.253
34.081
33.846
33.545
33.202
32.834
32.414
31.934
31.442
30.964
30.609
30.625
31.357
33.041
35.545
38.412
41.071
43.104
44.344
44.868
44.823
44.36
43.608
42.672
41.629
40.488
39.243
37.955
36.776
35.826
35.142
34.739
34.55
34.47
34.383
34.215
33.958
33.636
33.248
32.812
32.353
31.844
31.295
30.821
30.692
31.267
32.792
35.185
38.042
40.817
43.047
44.503
45.177
45.23
44.856
44.203
43.369
42.402
41.306
40.078
38.772
37.491
36.346
35.439
34.825
34.471
34.27
34.115
33.924
33.677
33.377
33.013
32.564
32.06
31.535
30.996
30.481
30.146
30.305
31.299
33.258
35.956
38.911
41.581
43.599
44.823
45.315
45.268
44.858
44.196
43.364
42.398
41.268
39.982
38.639
37.353
36.225
35.307
34.638
34.204
33.928
33.715
33.49
33.212
32.865
32.485
32.08
31.616
31.084
30.526
30.002
29.562
29.361
29.716
30.945
33.089
35.847
38.727
41.24
43.107
44.26
44.779
44.817
44.49
43.907
43.163
42.292
41.258
40.019
38.658
37.308
36.099
35.112
34.371
33.849
33.504
33.268
33.025
32.725
32.391
32.022
31.596
31.098
30.55
30.009
29.511
29.071
28.666
28.274
27.909
27.619
27.546
27.966
29.193
31.327
34.087
36.963
39.482
41.359
42.55
43.151
43.33
43.207
42.837
42.254
41.478
40.534
39.458
38.303
37.133
36.037
35.107
34.397
33.882
33.526
33.264
33.048
32.807
32.474
32.051
31.579
31.068
30.55
30.063
29.596
29.138
28.702
28.34
28.032
27.733
27.426
27.131
26.958
27.154
27.983
29.572
31.8
34.309
36.624
38.4
39.553
40.191
40.476
40.493
40.284
39.88
39.313
38.625
37.835
36.965
36.063
35.204
34.461
33.883
33.469
33.17
32.938
32.716
32.468
32.163
31.813
31.444
31.065
30.657
30.22
29.769
29.336
28.946
28.615
28.329
28.056
27.796
27.557
27.36
27.312
27.637
28.581
30.202
32.283
34.409
36.191
37.434
38.15
38.473
38.546
38.479
38.313
38.031
37.599
37.013
36.316
35.605
34.943
34.384
33.962
33.657
33.442
33.279
33.119
32.934
32.701
32.407
32.085
31.771
31.45
31.108
30.746
30.383
30.073
29.809
29.547
29.265
29.01
28.898
29.125
29.934
31.37
33.212
35.079
36.602
37.588
38.057
38.147
38.01
37.782
37.523
37.216
36.819
36.319
35.739
35.163
34.667
34.293
34.037
33.861
33.724
33.597
33.463
33.294
33.082
32.848
32.596
32.335
32.05
31.767
31.482
31.179
30.861
30.601
30.586
31.065
32.168
33.738
35.43
36.887
37.887
38.414
38.565
38.481
38.284
38.022
37.708
37.329
36.874
36.355
35.807
35.294
34.87
34.563
34.385
34.294
34.221
34.125
33.994
33.825
33.607
33.343
33.044
32.742
32.431
32.112
31.807
31.569
31.553
32.004
33.058
34.588
36.268
37.748
38.802
39.375
39.561
39.5
39.313
39.09
38.83
38.492
38.077
37.598
37.082
36.539
36.015
35.582
35.299
35.153
35.051
34.918
34.737
34.526
34.301
34.069
33.829
33.543
33.222
32.879
32.533
32.242
32.175
32.567
33.561
35.067
36.773
38.288
39.364
39.967
40.194
40.195
40.099
39.944
39.724
39.423
39.043
38.559
37.956
37.304
36.716
36.265
35.94
35.717
35.557
35.421
35.272
35.08
34.816
34.519
34.221
33.916
33.582
33.229
32.887
32.57
32.325
32.292
32.705
33.734
35.289
37.034
38.587
39.672
40.249
40.454
40.432
40.281
40.071
39.813
39.504
39.124
38.646
38.079
37.498
36.947
36.462
36.082
35.81
35.59
35.384
35.187
34.981
34.762
34.506
34.23
33.944
33.649
33.334
32.983
32.621
32.302
32.05
31.983
32.361
33.355
34.892
36.635
38.207
39.366
40.044
40.306
40.288
40.117
39.893
39.671
39.43
39.088
38.627
38.095
37.555
37.02
36.519
36.113
35.812
35.572
35.378
35.233
35.079
34.885
34.653
34.368
34.031
33.697
33.386
33.081
32.789
32.508
32.227
31.944
31.691
31.502
31.375
31.429
31.939
33.101
34.807
36.686
38.322
39.462
40.058
40.212
40.112
39.927
39.738
39.54
39.305
39.008
38.608
38.106
37.562
37.068
36.67
36.371
36.157
35.993
35.855
35.712
35.541
35.327
35.083
34.82
34.511
34.178
33.836
33.518
33.231
32.944
32.676
32.435
32.213
32.036
31.898
31.89
32.276
33.29
34.874
36.681
38.306
39.495
40.182
40.43
40.383
40.213
40.012
39.78
39.49
39.105
38.64
38.163
37.699
37.257
36.849
36.529
36.332
36.22
36.132
36.041
35.901
35.674
35.387
35.091
34.798
34.488
34.163
33.852
33.563
33.29
33.024
32.781
32.549
32.325
32.233
32.504
33.369
34.835
36.608
38.275
39.531
40.298
40.632
40.663
40.504
40.242
39.93
39.571
39.173
38.727
38.23
37.725
37.264
36.884
36.624
36.458
36.326
36.171
36.003
35.833
35.633
35.391
35.114
34.811
34.501
34.184
33.889
33.607
33.314
33.008
32.717
32.456
32.234
32.122
32.272
32.88
34.05
35.693
37.499
39.092
40.212
40.771
40.869
40.707
40.442
40.128
39.745
39.29
38.79
38.279
37.78
37.338
36.998
36.759
36.587
36.436
36.281
36.141
35.998
35.819
35.575
35.285
35.011
34.752
34.492
34.218
33.92
33.603
33.288
33.009
32.838
32.947
33.548
34.749
36.401
38.14
39.58
40.515
40.981
41.098
40.978
40.712
40.369
39.948
39.412
38.812
38.216
37.692
37.295
37.004
36.795
36.656
36.552
36.445
36.334
36.197
35.999
35.74
35.461
35.183
34.893
34.579
34.261
33.959
33.666
33.497
33.721
34.541
35.92
37.611
39.286
40.653
41.533
41.931
41.952
41.757
41.47
41.11
40.653
40.094
39.486
38.878
38.318
37.865
37.517
37.285
37.145
37.033
36.919
36.752
36.537
36.306
36.039
35.739
35.427
35.113
34.768
34.388
34.067
33.999
34.436
35.518
37.144
39.008
40.742
42.074
42.918
43.305
43.372
43.26
43.046
42.738
42.311
41.74
41.045
40.302
39.621
39.047
38.581
38.255
38.035
37.865
37.705
37.512
37.275
36.995
36.659
36.267
35.86
35.472
35.101
34.74
34.485
34.57
35.254
36.642
38.548
40.586
42.349
43.622
44.405
44.788
44.893
44.807
44.594
44.26
43.779
43.152
42.42
41.62
40.811
40.077
39.478
39.011
38.658
38.381
38.122
37.828
37.493
37.133
36.746
36.33
35.9
35.45
34.982
34.526
34.206
34.283
35.022
36.489
38.481
40.632
42.591
44.109
45.115
45.676
45.883
45.825
45.586
45.2
44.649
43.901
42.981
41.966
40.948
40.018
39.238
38.635
38.184
37.826
37.495
37.154
36.789
36.398
35.987
35.557
35.097
34.592
34.095
33.647
33.227
32.818
32.482
32.472
33.112
34.538
36.589
38.897
41.052
42.758
43.921
44.581
44.826
44.778
44.528
44.098
43.484
42.676
41.702
40.663
39.661
38.741
37.94
37.275
36.753
36.366
36.065
35.802
35.529
35.216
34.858
34.447
33.987
33.505
33.029
32.581
32.155
31.737
31.334
30.957
30.649
30.375
30.119
29.942
30.046
30.706
32.086
34.115
36.472
38.728
40.544
41.774
42.455
42.718
42.702
42.494
42.116
41.582
40.913
40.14
39.307
38.483
37.711
37.03
36.478
36.066
35.739
35.449
35.2
34.971
34.711
34.393
34.028
33.637
33.23
32.819
32.417
32.037
31.666
31.311
30.997
30.739
30.503
30.269
30.091
30.126
30.629
31.785
33.571
35.731
37.869
39.659
40.942
41.718
42.076
42.143
42.011
41.723
41.295
40.717
39.981
39.146
38.326
37.6
37.023
36.618
36.335
36.11
35.896
35.67
35.424
35.164
34.875
34.539
34.175
33.793
33.399
33.001
32.62
32.276
31.97
31.69
31.41
31.163
31.059
31.342
32.242
33.814
35.835
37.921
39.74
41.095
41.957
42.389
42.481
42.331
42.007
41.547
40.96
40.246
39.444
38.634
37.905
37.309
36.868
36.588
36.438
36.319
36.156
35.924
35.64
35.326
34.99
34.599
34.168
33.768
33.417
33.067
32.697
32.333
32.029
31.945
32.336
33.395
35.115
37.216
39.29
40.998
42.191
42.91
43.231
43.234
42.995
42.587
42.062
41.397
40.563
39.648
38.754
37.972
37.375
36.966
36.691
36.503
36.321
36.091
35.816
35.518
35.211
34.862
34.465
34.037
33.595
33.166
32.766
32.388
32.06
31.899
32.143
33.055
34.696
36.88
39.196
41.238
42.765
43.722
44.208
44.344
44.193
43.817
43.274
42.585
41.769
40.85
39.888
38.963
38.157
37.534
37.095
36.806
36.608
36.424
36.197
35.903
35.549
35.124
34.661
34.21
33.754
33.285
32.842
32.442
32.067
31.694
31.364
31.299
31.811
33.081
35.076
37.498
39.932
42.008
43.516
44.426
44.857
44.951
44.804
44.445
43.863
43.102
42.233
41.278
40.256
39.257
38.389
37.71
37.212
36.846
36.551
36.287
35.999
35.667
35.295
34.888
34.428
33.922
33.429
32.978
32.541
32.096
31.642
31.218
30.852
30.53
30.242
29.959
29.663
29.395
29.208
29.08
28.974
28.854
28.727
28.673
28.916
29.762
31.428
33.86
36.69
39.436
41.727
43.377
44.368
44.836
44.946
44.8
44.462
43.993
43.401
42.686
41.866
40.969
40.071
39.257
38.588
38.071
37.679
37.378
37.127
36.886
36.591
36.233
35.825
35.362
34.871
34.356
33.84
33.342
32.86
32.386
31.951
31.561
31.181
30.826
30.504
30.227
29.992
29.777
29.576
29.387
29.21
29.053
28.939
28.962
29.36
30.45
32.368
34.918
37.684
40.233
42.245
43.592
44.314
44.529
44.406
44.063
43.547
42.908
42.156
41.319
40.445
39.57
38.782
38.151
37.698
37.395
37.18
36.976
36.756
36.488
36.151
35.751
35.299
34.83
34.372
33.925
33.461
32.987
32.521
32.07
31.646
31.255
30.914
30.625
30.379
30.169
29.986
29.811
29.646
29.504
29.474
29.853
30.966
32.91
35.458
38.164
40.587
42.435
43.582
44.081
44.099
43.76
43.204
42.534
41.768
40.907
39.977
39.039
38.22
37.607
37.193
36.945
36.804
36.693
36.58
36.42
36.177
35.846
35.442
35.021
34.612
34.195
33.743
33.277
32.852
32.485
32.139
31.775
31.409
31.089
30.85
30.811
31.257
32.448
34.41
36.926
39.553
41.831
43.482
44.434
44.762
44.607
44.127
43.441
42.623
41.719
40.74
39.733
38.789
37.981
37.372
36.973
36.737
36.624
36.556
36.466
36.295
36.021
35.699
35.339
34.928
34.467
33.996
33.547
33.142
32.759
32.354
31.981
31.906
32.502
33.984
36.228
38.868
41.454
43.576
45.028
45.81
46.011
45.767
45.232
44.5
43.635
42.697
41.711
40.694
39.712
38.845
38.162
37.699
37.436
37.258
37.076
36.86
36.594
36.292
35.939
35.526
35.063
34.569
34.053
33.541
33.06
32.64
32.412
32.69
33.797
35.809
38.473
41.329
43.877
45.791
46.967
47.466
47.46
47.115
46.547
45.817
44.944
43.936
42.828
41.685
40.586
39.612
38.821
38.23
37.808
37.488
37.214
36.931
36.61
36.244
35.842
35.41
34.916
34.38
33.836
33.298
32.773
32.302
31.937
31.895
32.512
34.029
36.458
39.448
42.461
45.027
46.847
47.881
48.273
48.188
47.777
47.149
46.346
45.357
44.194
42.912
41.609
40.393
39.322
38.461
37.844
37.453
37.219
37.02
36.742
36.35
35.895
35.427
34.958
34.476
33.933
33.33
32.743
32.213
31.743
31.322
30.951
30.6
30.301
30.243
30.746
32.123
34.493
37.612
40.941
43.906
46.133
47.511
48.113
48.107
47.685
47.022
46.208
45.234
44.088
42.826
41.528
40.292
39.201
38.326
37.691
37.248
36.928
36.672
36.44
36.186
35.853
35.418
34.92
34.403
33.879
33.343
32.778
32.209
31.649
31.132
30.695
30.348
30.07
29.827
29.597
29.378
29.195
29.176
29.626
30.927
33.235
36.322
39.732
42.89
45.333
46.897
47.633
47.707
47.293
46.561
45.635
44.593
43.488
42.336
41.147
39.989
38.96
38.134
37.534
37.133
36.881
36.696
36.495
36.229
35.877
35.453
34.961
34.433
33.884
33.324
32.761
32.209
31.699
31.264
30.878
30.516
30.165
29.863
29.632
29.442
29.273
29.153
29.18
29.657
30.965
33.296
36.438
39.844
42.912
45.225
46.647
47.25
47.177
46.619
45.801
44.864
43.836
42.7
41.476
40.27
39.188
38.289
37.627
37.227
37.013
36.868
36.712
36.502
36.202
35.83
35.417
34.955
34.441
33.883
33.294
32.719
32.208
31.777
31.383
31.0
30.646
30.322
30.03
29.871
30.118
31.119
33.072
35.837
39.009
42.054
44.494
46.044
46.7
46.613
46.012
45.127
44.101
42.985
41.803
40.585
39.373
38.263
37.351
36.707
36.348
36.174
36.088
35.995
35.822
35.549
35.183
34.756
34.3
33.816
33.293
32.755
32.225
31.736
31.278
30.826
30.396
30.066
30.046
30.701
32.322
34.913
38.11
41.328
44.014
45.845
46.757
46.886
46.472
45.733
44.821
43.798
42.68
41.481
40.22
38.981
37.87
36.982
36.365
35.996
35.793
35.661
35.517
35.326
35.037
34.625
34.139
33.628
33.134
32.652
32.17
31.674
31.144
30.62
30.202
30.119
30.764
32.458
35.179
38.521
41.874
44.68
46.623
47.637
47.843
47.474
46.755
45.852
44.851
43.738
42.513
41.202
39.868
38.612
37.524
36.681
36.099
35.759
35.577
35.437
35.242
34.945
34.533
34.032
33.478
32.886
32.276
31.675
31.112
30.578
30.077
29.634
29.268
28.965
28.689
28.45
28.427
29.003
30.569
33.246
36.734
40.442
43.742
46.18
47.586
48.06
47.849
47.208
46.336
45.345
44.27
43.095
41.833
40.52
39.216
38.019
37.033
36.313
35.834
35.512
35.249
35.001
34.737
34.414
34.007
33.515
32.943
32.319
31.693
31.089
30.518
29.997
29.513
29.046
28.625
28.26
27.978
27.77
27.578
27.372
27.199
27.258
27.933
29.577
32.256
35.655
39.158
42.174
44.369
45.643
46.097
45.898
45.265
44.404
43.436
42.435
41.404
40.303
39.148
38.005
36.98
36.153
35.567
35.209
34.988
34.812
34.615
34.357
34.008
33.594
33.142
32.641
32.081
31.478
30.884
30.351
29.882
29.444
29.003
28.591
28.266
28.024
27.819
27.636
27.488
27.507
27.999
29.307
31.568
34.571
37.801
40.669
42.797
44.055
44.539
44.43
43.904
43.127
42.231
41.265
40.252
39.219
38.202
37.251
36.421
35.752
35.259
34.926
34.674
34.449
34.239
34.011
33.718
33.336
32.898
32.431
31.943
31.443
30.93
30.424
29.931
29.481
29.111
28.812
28.544
28.276
28.03
27.979
28.475
29.829
32.059
34.881
37.804
40.322
42.125
43.151
43.497
43.334
42.837
42.138
41.318
40.401
39.391
38.345
37.36
36.503
35.809
35.283
34.941
34.747
34.621
34.492
34.308
34.049
33.755
33.452
33.099
32.676
32.207
31.715
31.244
30.821
30.457
30.139
29.834
29.595
29.666
30.405
32.036
34.43
37.147
39.678
41.627
42.819
43.274
43.162
42.675
41.966
41.156
40.289
39.326
38.297
37.315
36.472
35.822
35.388
35.121
34.976
34.901
34.821
34.69
34.487
34.206
33.87
33.501
33.107
32.701
32.292
31.864
31.428
31.037
30.867
31.255
32.505
34.619
37.216
39.769
41.86
43.275
43.999
44.131
43.81
43.186
42.378
41.464
40.463
39.393
38.324
37.382
36.65
36.114
35.756
35.554
35.413
35.275
35.126
34.939
34.692
34.363
33.955
33.521
33.092
32.678
32.259
31.829
31.558
31.78
32.834
34.795
37.374
40.088
42.447
44.145
45.121
45.456
45.295
44.789
44.078
43.23
42.271
41.231
40.13
39.031
38.045
37.238
36.634
36.226
35.969
35.803
35.653
35.442
35.152
34.802
34.405
33.963
33.472
32.964
32.479
32.023
31.677
31.715
32.487
34.181
36.659
39.49
42.182
44.3
45.663
46.326
46.441
46.151
45.552
44.745
43.833
42.815
41.667
40.447
39.251
38.191
37.329
36.689
36.288
36.05
35.861
35.65
35.364
35.0
34.592
34.161
33.706
33.211
32.712
32.217
31.724
31.257
30.888
30.855
31.517
33.124
35.635
38.693
41.756
44.306
46.059
46.993
47.244
47.017
46.472
45.714
44.8
43.764
42.601
41.335
40.055
38.859
37.812
36.982
36.389
35.984
35.711
35.487
35.25
34.956
34.575
34.129
33.629
33.091
32.539
32.004
31.482
30.959
30.472
30.03
29.639
29.311
29.035
28.784
28.534
28.303
28.11
27.952
27.852
27.777
27.709
27.796
28.372
29.84
32.382
35.732
39.328
42.561
45.025
46.579
47.315
47.418
47.086
46.491
45.726
44.833
43.826
42.721
41.574
40.451
39.405
38.521
37.851
37.401
37.123
36.919
36.709
36.451
36.133
35.735
35.276
34.749
34.178
33.593
32.981
32.374
31.818
31.317
30.859
30.44
30.061
29.73
29.452
29.21
28.981
28.778
28.612
28.468
28.317
28.153
28.093
28.422
29.505
31.572
34.513
37.895
41.125
43.734
45.492
46.412
46.642
46.376
45.776
44.952
43.976
42.929
41.841
40.721
39.627
38.664
37.914
37.387
37.032
36.791
36.616
36.464
36.255
35.943
35.554
35.116
34.634
34.133
33.615
33.074
32.534
31.994
31.454
30.954
30.543
30.209
29.924
29.67
29.42
29.16
28.943
28.891
29.26
30.37
32.414
35.27
38.465
41.425
43.731
45.208
45.892
45.91
45.419
44.577
43.533
42.391
41.233
40.111
39.054
38.106
37.325
36.753
36.417
36.278
36.235
36.19
36.092
35.908
35.606
35.194
34.72
34.23
33.743
33.245
32.732
32.209
31.689
31.213
30.796
30.434
30.161
30.19
30.87
32.462
34.948
37.968
40.996
43.536
45.285
46.163
46.271
45.823
45.041
44.064
42.966
41.8
40.611
39.443
38.37
37.474
36.806
36.383
36.152
36.047
35.978
35.863
35.677
35.401
35.026
34.574
34.064
33.533
33.012
32.508
32.012
31.512
31.037
30.69
30.717
31.517
33.341
36.067
39.245
42.329
44.845
46.51
47.298
47.354
46.909
46.151
45.203
44.154
43.048
41.896
40.693
39.494
38.424
37.586
37.024
36.682
36.463
36.297
36.121
35.886
35.566
35.186
34.764
34.294
33.787
33.275
32.758
32.235
31.746
31.434
31.607
32.642
34.708
37.619
40.881
43.902
46.206
47.589
48.1
47.915
47.29
46.435
45.467
44.429
43.306
42.101
40.844
39.611
38.511
37.618
36.962
36.527
36.243
36.035
35.822
35.525
35.139
34.69
34.179
33.617
33.044
32.473
31.9
31.333
30.848
30.734
31.424
33.215
36.024
39.378
42.656
45.324
47.087
47.908
47.936
47.386
46.497
45.474
44.398
43.255
41.995
40.607
39.164
37.833
36.757
35.979
35.494
35.227
35.05
34.881
34.683
34.407
34.04
33.628
33.179
32.674
32.122
31.558
31.046
30.764
31.058
32.284
34.564
37.646
40.942
43.818
45.844
46.867
47.02
46.558
45.715
44.652
43.462
42.188
40.846
39.471
38.154
36.97
36.014
35.351
34.975
34.81
34.729
34.616
34.438
34.201
33.893
33.514
33.077
32.587
32.044
31.47
30.968
30.826
31.458
33.164
35.872
39.173
42.435
45.059
46.705
47.35
47.183
46.484
45.495
44.358
43.136
41.825
40.44
39.047
37.727
36.595
35.736
35.186
34.893
34.743
34.619
34.457
34.23
33.91
33.511
33.067
32.585
32.066
31.54
31.027
30.513
30.044
29.883
30.48
32.185
34.993
38.498
42.019
44.904
46.783
47.611
47.573
46.973
46.079
45.029
43.855
42.573
41.197
39.755
38.327
37.031
35.958
35.138
34.577
34.214
33.971
33.783
33.584
33.322
32.947
32.459
31.904
31.327
30.768
30.241
29.736
29.253
28.779
28.315
27.877
27.605
27.838
28.979
31.218
34.328
37.746
40.832
43.117
44.455
44.917
44.704
44.052
43.16
42.19
41.181
40.08
38.862
37.568
36.302
35.215
34.401
33.839
33.462
33.198
33.007
32.829
32.595
32.279
31.867
31.402
30.903
30.373
29.813
29.244
28.71
28.229
27.785
27.377
27.01
26.677
26.364
26.156
26.299
27.139
28.884
31.436
34.391
37.25
39.568
41.087
41.797
41.85
41.464
40.832
40.079
39.243
38.332
37.354
36.317
35.286
34.359
33.629
33.152
32.897
32.749
32.636
32.505
32.331
32.102
31.781
31.376
30.945
30.513
30.086
29.679
29.29
28.904
28.517
28.142
27.82
27.64
27.819
28.68
30.395
32.755
35.316
37.625
39.344
40.348
40.699
40.568
40.142
39.542
38.816
37.986
37.088
36.187
35.33
34.557
33.918
33.463
33.182
33.02
32.926
32.837
32.702
32.495
32.208
31.863
31.524
31.209
30.874
30.496
30.092
29.688
29.324
29.089
29.224
30.036
31.62
33.785
36.112
38.135
39.543
40.29
40.516
40.396
40.049
39.535
38.887
38.137
37.279
36.357
35.48
34.731
34.166
33.828
33.66
33.568
33.493
33.393
33.237
33.005
32.725
32.434
32.106
31.74
31.367
30.995
30.616
30.278
30.175
30.621
31.848
33.816
36.155
38.34
39.997
41.014
41.47
41.525
41.31
40.906
40.368
39.714
38.961
38.119
37.228
36.369
35.643
35.108
34.771
34.585
34.462
34.328
34.158
33.944
33.687
33.384
33.048
32.691
32.325
31.944
31.536
31.153
30.929
31.132
32.061
33.789
36.064
38.421
40.428
41.863
42.692
42.999
42.928
42.612
42.136
41.537
40.841
40.032
39.132
38.201
37.32
36.569
36.001
35.612
35.352
35.162
34.953
34.684
34.373
34.038
33.66
33.272
32.895
32.522
32.134
31.731
31.308
30.965
30.973
31.692
33.283
35.529
37.998
40.24
41.96
43.052
43.564
43.654
43.481
43.123
42.62
41.967
41.167
40.254
39.283
38.322
37.424
36.657
36.069
35.653
35.373
35.172
34.978
34.749
34.461
34.104
33.713
33.311
32.877
32.412
31.953
31.518
31.104
30.726
30.367
30.03
29.753
29.596
29.772
30.646
32.405
34.871
37.605
40.107
42.024
43.227
43.776
43.859
43.625
43.186
42.618
41.945
41.178
40.314
39.36
38.394
37.521
36.819
36.317
35.971
35.717
35.522
35.338
35.112
34.836
34.51
34.118
33.679
33.204
32.706
32.208
31.724
31.259
30.838
30.475
30.154
29.855
29.547
29.24
29.024
29.133
29.881
31.482
33.83
36.535
39.115
41.191
42.589
43.302
43.462
43.249
42.806
42.22
41.504
40.673
39.764
38.815
37.908
37.127
36.536
36.146
35.907
35.727
35.544
35.322
35.067
34.803
34.505
34.154
33.765
33.343
32.885
32.415
31.969
31.579
31.227
30.885
30.551
30.237
30.064
30.338
31.351
33.19
35.624
38.226
40.525
42.215
43.214
43.588
43.478
43.036
42.4
41.621
40.726
39.752
38.75
37.794
36.953
36.318
35.906
35.676
35.546
35.448
35.347
35.203
34.978
34.679
34.337
33.948
33.537
33.159
32.807
32.422
31.987
31.541
31.157
31.075
31.627
33.018
35.154
37.657
40.054
41.977
43.24
43.842
43.88
43.512
42.874
42.067
41.154
40.157
39.125
38.094
37.16
36.436
35.96
35.711
35.603
35.516
35.395
35.23
35.013
34.755
34.454
34.095
33.703
33.314
32.939
32.52
32.065
31.702
31.719
32.461
34.095
36.458
39.097
41.51
43.354
44.544
45.121
45.178
44.818
44.17
43.336
42.357
41.265
40.123
39.04
38.08
37.3
36.737
36.402
36.222
36.092
35.936
35.72
35.435
35.119
34.809
34.48
34.099
33.642
33.15
32.679
32.278
32.126
32.569
33.903
36.118
38.879
41.657
43.962
45.553
46.411
46.649
46.425
45.881
45.115
44.206
43.189
42.084
40.918
39.772
38.778
38.001
37.437
37.048
36.779
36.566
36.365
36.13
35.838
35.49
35.108
34.697
34.25
33.759
33.227
32.7
32.317
32.382
33.261
35.113
37.74
40.7
43.475
45.665
47.074
47.72
47.771
47.387
46.714
45.844
44.823
43.668
42.426
41.16
39.965
38.925
38.086
37.469
37.051
36.765
36.518
36.267
35.979
35.631
35.205
34.726
34.226
33.719
33.191
32.651
32.101
31.569
31.133
31.003
31.555
33.113
35.668
38.802
41.93
44.546
46.389
47.425
47.723
47.402
46.659
45.686
44.624
43.508
42.319
41.061
39.775
38.578
37.576
36.793
36.231
35.844
35.54
35.263
34.987
34.707
34.358
33.916
33.411
32.854
32.252
31.646
31.08
30.563
30.101
29.685
29.321
28.992
28.672
28.413
28.41
29.023
30.562
33.058
36.164
39.304
41.969
43.848
44.856
45.117
44.838
44.202
43.34
42.366
41.335
40.265
39.162
38.073
37.079
36.254
35.632
35.222
34.979
34.808
34.626
34.407
34.134
33.813
33.45
33.049
32.606
32.121
31.616
31.123
30.664
30.241
29.844
29.474
29.13
28.828
28.582
28.419
28.509
29.202
30.772
33.174
36.025
38.798
41.06
42.578
43.326
43.44
43.106
42.504
41.741
40.872
39.927
38.956
38.008
37.13
36.38
35.803
35.406
35.15
34.99
34.864
34.729
34.547
34.295
33.984
33.617
33.203
32.732
32.25
31.812
31.414
31.027
30.661
30.343
30.05
29.766
29.505
29.436
29.906
31.218
33.375
36.037
38.689
40.871
42.335
43.066
43.217
42.96
42.447
41.766
40.976
40.104
39.159
38.204
37.333
36.627
36.109
35.757
35.544
35.445
35.39
35.29
35.109
34.845
34.519
34.141
33.751
33.371
32.991
32.606
32.206
31.81
31.423
31.067
30.855
31.054
31.986
33.763
36.158
38.708
40.912
42.458
43.299
43.57
43.425
42.976
42.298
41.465
40.522
39.5
38.483
37.564
36.81
36.25
35.875
35.681
35.618
35.584
35.488
35.308
35.035
34.681
34.285
33.872
33.478
33.117
32.776
32.415
31.997
31.58
31.392
31.8
33.093
35.234
37.848
40.407
42.466
43.807
44.455
44.562
44.302
43.804
43.137
42.323
41.39
40.352
39.244
38.175
37.294
36.695
36.341
36.143
36.021
35.909
35.75
35.529
35.268
34.976
34.618
34.192
33.731
33.257
32.784
32.32
31.926
31.854
32.466
33.973
36.257
38.932
41.521
43.645
45.095
45.844
45.99
45.701
45.135
44.377
43.488
42.488
41.394
40.253
39.141
38.164
37.4
36.868
36.508
36.234
35.985
35.741
35.5
35.229
34.889
34.462
33.994
33.51
33.023
32.524
32.004
31.508
31.138
31.145
31.878
33.573
36.136
39.116
41.973
44.292
45.873
46.726
46.958
46.716
46.136
45.338
44.398
43.348
42.215
41.026
39.832
38.722
37.781
37.05
36.536
36.185
35.906
35.659
35.408
35.11
34.748
34.312
33.821
33.313
32.8
32.272
31.74
31.227
30.768
30.356
29.969
29.614
29.327
29.32
29.993
31.645
34.269
37.497
40.759
43.531
45.493
46.582
46.911
46.659
46.043
45.215
44.26
43.21
42.066
40.849
39.618
38.463
37.488
36.752
36.255
35.941
35.742
35.581
35.384
35.083
34.684
34.255
33.808
33.311
32.75
32.142
31.525
30.949
30.453
30.023
29.619
29.257
28.943
28.651
28.405
28.368
28.896
30.356
32.847
36.069
39.435
42.369
44.495
45.729
46.175
45.979
45.315
44.377
43.297
42.157
40.973
39.772
38.604
37.555
36.717
36.136
35.776
35.528
35.322
35.134
34.944
34.707
34.406
34.052
33.654
33.21
32.732
32.218
31.692
31.196
30.755
30.345
29.938
29.553
29.315
29.527
30.555
32.556
35.37
38.54
41.49
43.757
45.145
45.709
45.598
44.96
43.984
42.827
41.557
40.228
38.937
37.765
36.778
36.006
35.457
35.14
35.024
35.015
35.008
34.931
34.74
34.422
34.022
33.589
33.12
32.638
32.179
31.748
31.323
30.883
30.471
30.277
30.657
31.984
34.321
37.337
40.441
43.053
44.826
45.721
45.848
45.402
44.58
43.527
42.307
40.974
39.608
38.318
37.185
36.289
35.661
35.296
35.13
35.055
34.994
34.886
34.686
34.422
34.107
33.735
33.295
32.779
32.251
31.76
31.295
30.865
30.57
30.714
31.701
33.726
36.608
39.853
42.853
45.11
46.425
46.871
46.642
45.918
44.899
43.748
42.529
41.255
39.966
38.719
37.587
36.651
35.955
35.517
35.29
35.179
35.096
34.946
34.677
34.328
33.937
33.51
33.069
32.618
32.131
31.603
31.069
30.671
30.685
31.524
33.462
36.37
39.73
42.907
45.397
46.96
47.619
47.55
46.968
46.052
44.946
43.746
42.486
41.17
39.848
38.585
37.466
36.589
35.987
35.59
35.304
35.087
34.899
34.687
34.414
34.068
33.672
33.233
32.745
32.203
31.628
31.074
30.572
30.206
30.225
31.054
32.976
35.916
39.405
42.803
45.559
47.358
48.159
48.159
47.619
46.731
45.616
44.371
43.046
41.682
40.302
38.983
37.804
36.831
36.099
35.609
35.309
35.12
34.968
34.79
34.536
34.182
33.728
33.218
32.686
32.155
31.629
31.099
30.549
30.005
29.554
29.413
29.978
31.615
34.378
37.894
41.529
44.634
46.78
47.845
48.005
47.551
46.691
45.566
44.282
42.907
41.487
40.083
38.768
37.62
36.698
36.026
35.596
35.34
35.172
35.022
34.833
34.576
34.247
33.849
33.409
32.929
32.401
31.815
31.203
30.639
30.147
29.7
29.293
28.959
28.883
29.471
31.124
33.922
37.502
41.205
44.378
46.577
47.674
47.819
47.278
46.304
45.096
43.777
42.416
41.038
39.689
38.427
37.331
36.481
35.905
35.563
35.366
35.228
35.099
34.936
34.695
34.333
33.88
33.383
32.865
32.318
31.743
31.167
30.627
30.106
29.592
29.162
29.031
29.582
31.164
33.798
37.105
40.484
43.31
45.185
46.056
46.05
45.389
44.321
43.048
41.71
40.362
39.029
37.75
36.6
35.667
34.985
34.529
34.257
34.118
34.021
33.882
33.69
33.43
33.097
32.72
32.297
31.813
31.286
30.777
30.308
29.854
29.398
28.979
28.717
28.888
29.874
31.891
34.747
37.89
40.698
42.721
43.819
44.068
43.641
42.768
41.675
40.518
39.354
38.166
36.973
35.865
34.949
34.294
33.891
33.696
33.622
33.569
33.473
33.318
33.1
32.817
32.486
32.101
31.667
31.215
30.766
30.344
29.932
29.52
29.248
29.461
30.503
32.461
35.083
37.864
40.294
42.006
42.89
43.057
42.717
42.033
41.118
40.081
38.97
37.829
36.735
35.742
34.888
34.251
33.879
33.725
33.703
33.703
33.646
33.499
33.273
32.972
32.616
32.228
31.813
31.374
30.929
30.492
30.117
30.031
30.595
32.048
34.309
36.999
39.589
41.628
42.918
43.47
43.427
42.993
42.315
41.498
40.585
39.556
38.446
37.345
36.374
35.586
34.998
34.6
34.35
34.192
34.093
34.005
33.847
33.579
33.209
32.808
32.43
32.049
31.644
31.222
30.813
30.548
30.783
31.889
33.943
36.618
39.345
41.6
43.107
43.856
44.022
43.782
43.265
42.569
41.734
40.787
39.768
38.716
37.683
36.734
35.944
35.347
34.948
34.701
34.522
34.341
34.132
33.89
33.603
33.282
32.907
32.468
31.99
31.517
31.077
30.735
30.697
31.334
32.91
35.332
38.13
40.723
42.719
43.994
44.604
44.666
44.323
43.72
42.948
42.08
41.133
40.095
38.99
37.897
36.923
36.137
35.563
35.174
34.911
34.72
34.541
34.307
34.027
33.702
33.328
32.92
32.497
32.05
31.579
31.1
30.649
30.344
30.481
31.404
33.274
35.912
38.838
41.48
43.468
44.694
45.237
45.256
44.913
44.334
43.576
42.665
41.646
40.546
39.386
38.246
37.217
36.378
35.779
35.397
35.138
34.934
34.724
34.465
34.15
33.795
33.401
32.948
32.429
31.878
31.353
30.873
30.425
29.999
29.617
29.3
29.03
28.802
28.799
29.403
30.97
33.525
36.682
39.855
42.526
44.426
45.531
45.973
45.918
45.511
44.857
44.028
43.066
42.0
40.877
39.748
38.668
37.713
36.936
36.364
35.969
35.669
35.418
35.187
34.92
34.574
34.15
33.662
33.156
32.645
32.131
31.617
31.095
30.569
30.078
29.656
29.287
28.946
28.642
28.436
28.552
29.371
31.165
33.808
36.811
39.624
41.828
43.239
43.892
43.94
43.579
42.958
42.18
41.305
40.356
39.335
38.273
37.248
36.358
35.63
35.051
34.601
34.271
34.053
33.907
33.737
33.481
33.133
32.721
32.272
31.799
31.323
30.836
30.366
29.917
29.506
29.151
28.827
28.537
28.295
28.12
28.174
28.833
30.405
32.799
35.538
38.039
39.867
40.903
41.224
41.042
40.57
39.943
39.233
38.461
37.638
36.778
35.928
35.161
34.525
34.018
33.628
33.354
33.198
33.105
33.003
32.848
32.624
32.345
32.049
31.748
31.413
31.056
30.698
30.342
29.993
29.676
29.395
29.14
28.902
28.738
28.9
29.758
31.484
33.857
36.348
38.42
39.756
40.346
40.363
39.997
39.413
38.741
38.032
37.296
36.527
35.739
35.005
34.398
33.941
33.624
33.439
33.352
33.309
33.285
33.237
33.135
32.969
32.737
32.433
32.077
31.729
31.417
31.145
30.863
30.562
30.277
30.038
29.918
30.15
31.038
32.714
34.929
37.191
39.026
40.187
40.676
40.634
40.246
39.651
38.961
38.239
37.488
36.712
35.974
35.367
34.919
34.623
34.464
34.398
34.375
34.366
34.343
34.279
34.151
33.962
33.721
33.442
33.135
32.837
32.553
32.281
32.001
31.706
31.523
31.765
32.744
34.503
36.7
38.818
40.445
41.4
41.718
41.561
41.104
40.497
39.828
39.135
38.434
37.75
37.112
36.569
36.17
35.94
35.866
35.871
35.889
35.881
35.81
35.655
35.435
35.183
34.908
34.598
34.265
33.934
33.609
33.31
33.122
33.287
34.115
35.703
37.829
40.035
41.858
43.043
43.605
43.693
43.477
43.087
42.602
42.036
41.377
40.641
39.879
39.177
38.597
38.152
37.858
37.69
37.589
37.49
37.371
37.214
37.009
36.728
36.39
36.043
35.689
35.298
34.865
34.458
34.263
34.584
35.682
37.55
39.849
42.101
43.914
45.133
45.779
45.983
45.88
45.552
45.059
44.429
43.683
42.849
41.962
41.095
40.296
39.609
39.076
38.708
38.476
38.28
38.044
37.765
37.443
37.07
36.666
36.24
35.793
35.305
34.811
34.359
34.058
34.157
34.978
36.667
38.969
41.382
43.459
44.928
45.753
46.031
45.916
45.557
45.038
44.389
43.609
42.666
41.61
40.551
39.574
38.732
38.05
37.538
37.153
36.836
36.559
36.299
36.02
35.688
35.268
34.778
34.278
33.792
33.32
32.866
32.422
31.986
31.589
31.405
31.746
32.876
34.786
37.146
39.464
41.312
42.478
43.0
43.073
42.887
42.528
42.027
41.396
40.649
39.815
38.923
38.012
37.136
36.382
35.82
35.46
35.244
35.075
34.897
34.668
34.385
34.047
33.676
33.293
32.894
32.467
32.013
31.565
31.169
30.838
30.562
30.301
30.045
29.803
29.596
29.432
29.294
29.259
29.558
30.497
32.201
34.448
36.776
38.709
40.0
40.65
40.804
40.664
40.39
40.037
39.614
39.101
38.504
37.859
37.206
36.581
36.027
35.599
35.327
35.194
35.139
35.079
34.96
34.755
34.471
34.14
33.798
33.455
33.132
32.813
32.478
32.139
31.783
31.428
31.141
30.933
30.781
30.656
30.518
30.366
30.226
30.119
30.178
30.693
31.893
33.751
35.933
37.936
39.408
40.266
40.595
40.566
40.339
40.007
39.611
39.164
38.672
38.138
37.567
37.005
36.501
36.114
35.868
35.748
35.681
35.605
35.494
35.332
35.105
34.83
34.532
34.228
33.915
33.583
33.244
32.913
32.597
32.29
32.006
31.765
31.554
31.375
31.237
31.121
31.006
30.898
30.882
31.2
32.128
33.732
35.771
37.818
39.464
40.495
40.932
40.928
40.686
40.35
39.964
39.544
39.092
38.591
38.036
37.501
37.052
36.727
36.534
36.421
36.322
36.234
36.157
36.048
35.896
35.692
35.417
35.101
34.753
34.386
34.019
33.67
33.361
33.082
32.805
32.533
32.299
32.126
31.984
31.847
31.845
32.302
33.481
35.314
37.416
39.32
40.709
41.496
41.769
41.691
41.414
41.019
40.545
40.007
39.421
38.809
38.2
37.644
37.204
36.923
36.796
36.771
36.783
36.766
36.684
36.534
36.313
36.025
35.691
35.341
34.985
34.64
34.314
33.989
33.665
33.334
33.013
32.789
32.91
33.664
35.143
37.128
39.211
41.0
42.248
42.912
43.097
42.993
42.722
42.322
41.846
41.31
40.704
40.025
39.295
38.622
38.091
37.711
37.475
37.331
37.207
37.085
36.944
36.755
36.49
36.167
35.809
35.446
35.067
34.655
34.216
33.785
33.412
33.228
33.466
34.366
35.99
38.12
40.325
42.216
43.561
44.339
44.652
44.633
44.4
44.031
43.54
42.948
42.252
41.45
40.599
39.786
39.061
38.484
38.073
37.784
37.569
37.361
37.121
36.845
36.537
36.185
35.776
35.354
34.921
34.46
33.997
33.544
33.109
32.753
32.658
33.133
34.431
36.513
39.032
41.488
43.491
44.87
45.64
45.929
45.88
45.605
45.161
44.561
43.795
42.889
41.895
40.876
39.914
39.063
38.368
37.843
37.462
37.186
36.965
36.742
36.475
36.128
35.703
35.241
34.773
34.297
33.799
33.285
32.797
32.348
31.935
31.546
31.177
30.853
30.702
30.989
32.044
34.005
36.65
39.482
42.007
43.904
45.103
45.669
45.721
45.406
44.85
44.155
43.372
42.487
41.491
40.446
39.432
38.522
37.768
37.189
36.782
36.501
36.281
36.068
35.845
35.582
35.246
34.84
34.366
33.843
33.306
32.783
32.286
31.814
31.366
30.95
30.576
30.266
30.009
29.768
29.522
29.299
29.297
29.851
31.257
33.532
36.326
39.11
41.426
43.022
43.87
44.096
43.896
43.42
42.768
41.999
41.146
40.239
39.294
38.371
37.531
36.833
36.303
35.92
35.671
35.497
35.339
35.152
34.92
34.643
34.298
33.899
33.465
33.007
32.535
32.06
31.593
31.166
30.796
30.472
30.18
29.912
29.675
29.462
29.267
29.147
29.3
30.086
31.726
34.131
36.894
39.465
41.426
42.645
43.212
43.291
43.009
42.484
41.797
41.0
40.148
39.275
38.417
37.609
36.917
36.408
36.096
35.914
35.807
35.731
35.603
35.373
35.066
34.75
34.438
34.089
33.696
33.291
32.887
32.474
32.065
31.664
31.293
30.967
30.69
30.577
30.908
31.992
33.908
36.393
38.949
41.122
42.663
43.509
43.748
43.525
42.989
42.28
41.486
40.615
39.657
38.658
37.725
36.946
36.377
36.016
35.826
35.747
35.717
35.654
35.499
35.278
35.026
34.737
34.411
34.038
33.628
33.189
32.756
32.347
31.98
31.806
32.152
33.318
35.323
37.852
40.392
42.478
43.87
44.571
44.72
44.473
43.956
43.237
42.371
41.389
40.334
39.289
38.32
37.503
36.91
36.529
36.306
36.171
36.05
35.9
35.709
35.488
35.233
34.913
34.524
34.085
33.628
33.18
32.747
32.399
32.345
32.917
34.379
36.669
39.389
42.02
44.138
45.532
46.213
46.314
45.988
45.369
44.574
43.689
42.718
41.645
40.523
39.473
38.558
37.803
37.268
36.946
36.75
36.587
36.372
36.081
35.74
35.372
34.986
34.559
34.097
33.613
33.13
32.659
32.216
31.934
32.15
33.232
35.279
38.018
40.945
43.558
45.52
46.705
47.157
47.051
46.557
45.832
44.975
44.012
42.923
41.737
40.529
39.4
38.405
37.56
36.913
36.464
36.176
35.961
35.729
35.428
35.043
34.585
34.093
33.594
33.084
32.548
32.015
31.514
31.041
30.603
30.206
29.953
30.131
31.104
33.043
35.749
38.709
41.321
43.191
44.252
44.649
44.537
44.048
43.347
42.54
41.649
40.662
39.565
38.43
37.344
36.403
35.666
35.135
34.754
34.481
34.272
34.048
33.776
33.442
33.035
32.578
32.101
31.621
31.149
30.686
30.226
29.783
29.373
29.01
28.692
28.425
28.207
28.034
27.953
28.178
29.059
30.792
33.203
35.855
38.241
40.03
41.095
41.498
41.441
41.115
40.616
40.002
39.307
38.553
37.727
36.872
36.065
35.371
34.818
34.404
34.148
34.028
33.962
33.868
33.691
33.444
33.141
32.801
32.445
32.054
31.62
31.189
30.797
30.46
30.181
29.921
29.664
29.432
29.249
29.183
29.526
30.602
32.445
34.746
37.06
38.973
40.249
40.883
41.009
40.78
40.348
39.813
39.218
38.575
37.856
37.079
36.333
35.707
35.248
34.966
34.834
34.788
34.759
34.681
34.524
34.305
34.029
33.713
33.386
33.067
32.73
32.374
32.038
31.73
31.403
31.094
30.93
31.136
31.977
33.569
35.7
37.924
39.815
41.118
41.786
41.948
41.767
41.388
40.906
40.355
39.724
39.015
38.257
37.523
36.864
36.339
35.972
35.743
35.618
35.535
35.429
35.267
35.046
34.775
34.464
34.107
33.72
33.337
32.969
32.606
32.252
31.91
31.582
31.396
31.656
32.634
34.359
36.578
38.883
40.863
42.271
43.072
43.371
43.312
43.017
42.592
42.081
41.483
40.764
39.941
39.085
38.276
37.569
37.018
36.639
36.384
36.213
36.069
35.893
35.654
35.335
34.964
34.578
34.17
33.732
33.293
32.859
32.447
32.074
31.758
31.48
31.225
31.0
30.877
31.107
32.045
33.826
36.223
38.762
40.961
42.552
43.498
43.928
43.992
43.789
43.396
42.884
42.278
41.575
40.752
39.858
38.996
38.239
37.606
37.119
36.782
36.554
36.365
36.158
35.913
35.627
35.31
34.941
34.488
33.994
33.492
33.01
32.579
32.181
31.78
31.406
31.079
30.783
30.518
30.287
30.056
29.819
29.678
29.847
30.629
32.235
34.556
37.179
39.605
41.522
42.813
43.479
43.627
43.414
42.975
42.402
41.747
41.014
40.228
39.416
38.611
37.881
37.281
36.842
36.553
36.367
36.227
36.085
35.92
35.694
35.386
35.024
34.641
34.222
33.776
33.312
32.849
32.421
32.039
31.69
31.363
31.061
30.795
30.56
30.379
30.404
30.941
32.26
34.332
36.852
39.374
41.45
42.813
43.462
43.544
43.242
42.692
41.999
41.219
40.376
39.483
38.605
37.823
37.184
36.68
36.307
36.084
35.995
35.974
35.917
35.759
35.487
35.143
34.796
34.47
34.131
33.76
33.344
32.921
32.514
32.127
31.788
31.582
31.724
32.552
34.217
36.517
38.994
41.178
42.771
43.664
43.925
43.74
43.265
42.615
41.856
40.997
40.057
39.086
38.17
37.384
36.775
36.369
36.139
36.018
35.947
35.864
35.724
35.504
35.233
34.93
34.574
34.164
33.724
33.296
32.896
32.506
32.15
31.978
32.325
33.501
35.542
38.121
40.718
42.897
44.413
45.221
45.411
45.153
44.614
43.922
43.13
42.234
41.251
40.225
39.227
38.346
37.651
37.15
36.812
36.588
36.421
36.257
36.081
35.856
35.557
35.189
34.764
34.297
33.818
33.349
32.905
32.493
32.111
31.81
31.852
32.594
34.259
36.74
39.62
42.364
44.546
45.958
46.617
46.707
46.426
45.879
45.136
44.246
43.246
42.191
41.124
40.069
39.082
38.25
37.627
37.187
36.875
36.644
36.438
36.222
35.952
35.593
35.174
34.725
34.23
33.702
33.196
32.714
32.231
31.775
31.381
31.074
31.031
31.618
33.135
35.564
38.535
41.476
43.886
45.484
46.259
46.395
46.083
45.455
44.623
43.658
42.601
41.494
40.369
39.266
38.257
37.431
36.825
36.416
36.155
35.954
35.734
35.475
35.164
34.803
34.387
33.894
33.34
32.773
32.234
31.751
31.312
30.886
30.466
30.064
29.789
29.96
30.941
32.892
35.584
38.496
41.086
42.966
44.025
44.352
44.116
43.524
42.725
41.799
40.797
39.77
38.743
37.757
36.881
36.166
35.616
35.212
34.942
34.801
34.692
34.522
34.289
34.021
33.701
33.334
32.911
32.441
31.984
31.574
31.183
30.775
30.371
30.114
30.306
31.283
33.156
35.669
38.325
40.613
42.204
43.015
43.141
42.812
42.199
41.405
40.534
39.627
38.687
37.713
36.779
35.984
35.422
35.102
34.97
34.936
34.904
34.828
34.662
34.407
34.094
33.762
33.425
33.085
32.733
32.357
31.957
31.555
31.269
31.372
32.199
33.894
36.257
38.801
41.038
42.644
43.525
43.812
43.668
43.211
42.562
41.792
40.895
39.895
38.868
37.886
37.052
36.443
36.063
35.873
35.807
35.763
35.687
35.531
35.287
34.958
34.579
34.18
33.792
33.41
33.001
32.563
32.211
32.237
33.026
34.728
37.111
39.672
41.922
43.542
44.475
44.822
44.716
44.299
43.69
42.922
42.016
41.044
40.046
39.022
38.025
37.142
36.485
36.109
35.928
35.793
35.617
35.371
35.076
34.727
34.312
33.835
33.341
32.882
32.449
32.002
31.589
31.427
31.842
33.091
35.135
37.577
39.895
41.69
42.792
43.261
43.256
42.929
42.383
41.699
40.922
40.054
39.103
38.091
37.073
36.117
35.316
34.737
34.376
34.168
34.008
33.815
33.542
33.188
32.799
32.411
32.002
31.563
31.103
30.657
30.242
29.852
29.568
29.682
30.517
32.171
34.369
36.608
38.427
39.599
40.155
40.25
40.058
39.702
39.251
38.741
38.133
37.418
36.614
35.75
34.906
34.164
33.611
33.264
33.082
32.995
32.909
32.773
32.553
32.234
31.845
31.446
31.075
30.744
30.423
30.093
29.774
29.474
29.199
28.944
28.792
28.999
29.875
31.512
33.628
35.718
37.356
38.351
38.759
38.77
38.573
38.282
37.933
37.523
37.047
36.513
35.905
35.234
34.569
34.01
33.618
33.383
33.256
33.205
33.173
33.103
32.955
32.717
32.42
32.118
31.838
31.555
31.252
30.941
30.658
30.412
30.205
30.042
29.909
29.777
29.645
29.546
29.603
30.109
31.334
33.219
35.337
37.146
38.313
38.831
38.888
38.688
38.393
38.078
37.767
37.433
37.05
36.621
36.153
35.667
35.226
34.867
34.61
34.456
34.389
34.373
34.356
34.296
34.165
33.969
33.709
33.416
33.129
32.843
32.57
32.302
32.026
31.78
31.581
31.415
31.276
31.149
31.038
30.963
30.931
31.096
31.76
33.102
34.959
36.888
38.441
39.385
39.746
39.686
39.408
39.071
38.736
38.418
38.104
37.773
37.372
36.903
36.414
35.999
35.701
35.515
35.412
35.369
35.345
35.313
35.253
35.132
34.94
34.685
34.394
34.079
33.778
33.492
33.208
32.932
32.675
32.442
32.257
32.117
32.015
31.942
31.856
31.752
31.647
31.57
31.606
31.948
32.85
34.387
36.278
38.067
39.367
40.008
40.098
39.877
39.548
39.211
38.877
38.533
38.168
37.777
37.358
36.935
36.546
36.219
35.965
35.8
35.736
35.732
35.713
35.656
35.555
35.401
35.194
34.927
34.615
34.303
34.018
33.735
33.459
33.224
33.049
32.891
32.706
32.506
32.339
32.218
32.145
32.108
32.061
31.974
31.891
32.013
32.632
33.882
35.607
37.418
38.881
39.743
40.011
39.858
39.493
39.049
38.624
38.243
37.886
37.518
37.128
36.732
36.354
36.02
35.788
35.658
35.595
35.578
35.579
35.569
35.521
35.401
35.194
34.957
34.715
34.449
34.155
33.859
33.606
33.402
33.23
33.071
32.922
32.782
32.636
32.514
32.443
32.4
32.341
32.243
32.184
32.349
32.986
34.239
35.966
37.758
39.193
40.041
40.31
40.156
39.787
39.341
38.89
38.478
38.098
37.737
37.372
36.993
36.636
36.34
36.159
36.087
36.08
36.099
36.119
36.105
36.029
35.887
35.703
35.496
35.263
34.997
34.727
34.478
34.248
34.013
33.775
33.537
33.337
33.206
33.131
33.069
32.984
32.87
32.776
32.816
33.216
34.202
35.759
37.588
39.267
40.462
41.07
41.153
40.905
40.509
40.079
39.648
39.239
38.852
38.454
38.042
37.646
37.313
37.1
37.005
36.975
36.985
36.987
36.957
36.887
36.754
36.543
36.299
36.057
35.809
35.551
35.282
35.003
34.736
34.508
34.303
34.093
33.898
33.734
33.59
33.448
33.316
33.257
33.434
34.123
35.471
37.297
39.18
40.693
41.623
41.988
41.927
41.633
41.252
40.853
40.418
39.97
39.537
39.103
38.665
38.249
37.897
37.652
37.556
37.551
37.559
37.529
37.427
37.258
37.017
36.738
36.456
36.174
35.882
35.58
35.272
34.977
34.714
34.493
34.314
34.137
33.951
33.767
33.595
33.478
33.588
34.203
35.46
37.214
39.082
40.668
41.722
42.193
42.206
41.942
41.566
41.18
40.811
40.431
40.009
39.542
39.054
38.586
38.2
37.938
37.788
37.71
37.667
37.618
37.521
37.339
37.07
36.755
36.464
36.198
35.911
35.594
35.274
34.988
34.715
34.453
34.197
33.956
33.745
33.584
33.525
33.708
34.372
35.693
37.5
39.38
40.933
41.935
42.379
42.419
42.227
41.94
41.614
41.288
40.948
40.556
40.086
39.543
38.977
38.486
38.139
37.93
37.826
37.753
37.673
37.557
37.382
37.143
36.86
36.553
36.225
35.87
35.498
35.15
34.862
34.629
34.407
34.182
33.962
33.757
33.574
33.449
33.502
33.967
35.065
36.766
38.746
40.564
41.892
42.648
42.953
42.957
42.777
42.508
42.212
41.883
41.472
40.979
40.432
39.886
39.381
38.945
38.628
38.424
38.282
38.157
38.025
37.868
37.672
37.4
37.05
36.657
36.265
35.903
35.571
35.266
34.948
34.607
34.28
34.024
33.843
33.692
33.545
33.409
33.305
33.377
33.911
35.115
36.913
38.941
40.757
42.079
42.851
43.142
43.112
42.928
42.679
42.394
42.067
41.679
41.206
40.626
39.968
39.308
38.753
38.382
38.164
38.021
37.898
37.746
37.535
37.266
36.947
36.581
36.198
35.811
35.412
35.016
34.647
34.313
34.003
33.725
33.469
33.228
33.007
32.821
32.661
32.519
32.388
32.265
32.16
32.145
32.421
33.235
34.706
36.632
38.599
40.236
41.329
41.873
42.002
41.895
41.672
41.39
41.088
40.758
40.358
39.852
39.246
38.604
38.02
37.584
37.335
37.216
37.154
37.052
36.871
36.648
36.39
36.1
35.767
35.398
35.032
34.685
34.347
34.021
33.711
33.436
33.194
32.965
32.732
32.526
32.376
32.253
32.143
32.045
31.942
31.827
31.72
31.646
31.746
32.293
33.499
35.287
37.301
39.114
40.44
41.224
41.564
41.588
41.43
41.193
40.921
40.607
40.239
39.807
39.299
38.747
38.226
37.792
37.482
37.283
37.169
37.088
36.981
36.814
36.564
36.266
35.961
35.65
35.296
34.905
34.535
34.202
33.909
33.628
33.353
33.097
32.882
32.693
32.512
32.359
32.261
32.178
32.087
31.991
31.897
31.821
31.777
31.887
32.448
33.662
35.459
37.512
39.394
40.772
41.571
41.902
41.915
41.704
41.363
40.992
40.638
40.267
39.835
39.331
38.799
38.316
37.92
37.631
37.445
37.339
37.266
37.178
37.02
36.777
36.466
36.12
35.79
35.484
35.164
34.816
34.456
34.111
33.804
33.526
33.278
33.061
32.865
32.688
32.527
32.393
32.299
32.232
32.146
32.045
32.097
32.57
33.69
35.446
37.502
39.407
40.863
41.778
42.172
42.178
41.971
41.674
41.312
40.908
40.499
40.078
39.609
39.101
38.606
38.162
37.818
37.612
37.501
37.403
37.281
37.124
36.9
36.618
36.304
35.989
35.651
35.28
34.892
34.518
34.167
33.858
33.591
33.36
33.152
32.955
32.776
32.629
32.497
32.363
32.245
32.215
32.467
33.242
34.663
36.593
38.691
40.543
41.87
42.598
42.827
42.744
42.491
42.162
41.8
41.402
40.94
40.413
39.849
39.297
38.801
38.388
38.105
37.94
37.819
37.673
37.477
37.238
36.978
36.71
36.41
36.074
35.713
35.347
34.975
34.621
34.314
34.028
33.736
33.439
33.166
32.953
32.807
32.705
32.603
32.501
32.504
32.866
33.856
35.533
37.64
39.732
41.419
42.508
43.035
43.116
42.921
42.608
42.248
41.841
41.372
40.818
40.209
39.602
39.071
38.676
38.431
38.278
38.164
38.042
37.897
37.724
37.517
37.247
36.908
36.542
36.183
35.812
35.411
35.017
34.644
34.304
34.005
33.739
33.483
33.267
33.115
32.995
32.914
33.038
33.653
34.957
36.868
39.057
41.104
42.681
43.678
44.128
44.167
43.978
43.689
43.342
42.943
42.453
41.865
41.203
40.513
39.874
39.325
38.905
38.646
38.517
38.424
38.258
37.967
37.612
37.247
36.878
36.487
36.057
35.595
35.131
34.698
34.313
33.982
33.705
33.465
33.244
33.042
32.856
32.677
32.543
32.55
32.913
33.889
35.559
37.688
39.861
41.673
42.904
43.57
43.844
43.871
43.752
43.542
43.263
42.904
42.422
41.787
41.045
40.27
39.554
38.979
38.574
38.328
38.167
38.002
37.789
37.506
37.156
36.771
36.373
35.963
35.523
35.053
34.598
34.195
33.84
33.521
33.245
33.008
32.818
32.668
32.529
32.396
32.274
32.181
32.192
32.506
33.385
34.923
36.948
39.093
40.96
42.334
43.209
43.709
43.94
43.971
43.876
43.678
43.37
42.926
42.301
41.518
40.676
39.899
39.275
38.837
38.555
38.355
38.166
37.938
37.65
37.312
36.931
36.508
36.043
35.559
35.094
34.666
34.263
33.887
33.555
33.273
33.034
32.816
32.616
32.445
32.312
32.201
32.084
31.93
31.765
31.658
31.747
32.272
33.448
35.246
37.37
39.415
41.085
42.269
43.017
43.462
43.699
43.79
43.761
43.594
43.245
42.695
41.961
41.097
40.199
39.395
38.784
38.375
38.115
37.92
37.719
37.462
37.136
36.755
36.322
35.854
35.375
34.902
34.445
34.007
33.605
33.222
32.871
32.584
32.363
32.159
31.955
31.762
31.586
31.443
31.344
31.253
31.143
31.008
30.891
30.896
31.21
32.067
33.547
35.472
37.464
39.133
40.299
41.005
41.382
41.55
41.612
41.592
41.471
41.209
40.795
40.224
39.505
38.696
37.914
37.283
36.873
36.662
36.546
36.418
36.239
35.989
35.678
35.325
34.939
34.537
34.138
33.75
33.385
33.051
32.745
32.472
32.226
32.013
31.834
31.67
31.508
31.344
31.183
31.054
30.969
30.917
30.865
30.797
30.69
30.588
30.618
31.026
32.018
33.573
35.424
37.204
38.614
39.558
40.083
40.311
40.362
40.349
40.315
40.231
40.033
39.668
39.136
38.508
37.88
37.332
36.898
36.576
36.372
36.264
36.166
36.026
35.818
35.538
35.212
34.85
34.475
34.118
33.782
33.482
33.205
32.934
32.685
32.47
32.284
32.119
31.977
31.859
31.766
31.676
31.588
31.505
31.417
31.329
31.239
31.16
31.077
30.972
30.866
30.839
31.036
31.65
32.837
34.508
36.325
37.935
39.094
39.756
40.057
40.133
40.12
40.07
39.982
39.821
39.563
39.193
38.717
38.171
37.633
37.183
36.872
36.688
36.589
36.505
36.391
36.222
36.001
35.765
35.534
35.258
34.924
34.577
34.269
34.002
33.741
33.501
33.307
33.127
32.926
32.735
32.58
32.46
32.36
32.279
32.214
32.135
32.042
31.941
31.833
31.75
31.685
31.618
31.517
31.45
31.629
32.293
33.542
35.208
36.952
38.437
39.464
39.983
40.103
40.005
39.827
39.642
39.481
39.323
39.139
38.842
38.409
37.93
37.514
37.201
36.992
36.877
36.84
36.837
36.773
36.592
36.354
36.102
35.851
35.582
35.292
34.994
34.685
34.381
34.126
33.921
33.758
33.614
33.457
33.298
33.16
33.057
32.953
32.832
32.704
32.59
32.49
32.416
32.358
32.297
32.232
32.27
32.664
33.635
35.134
36.863
38.429
39.548
40.162
40.358
40.279
40.072
39.83
39.597
39.381
39.156
38.883
38.525
38.101
37.678
37.337
37.124
37.031
37.007
36.982
36.903
36.754
36.548
36.301
36.016
35.718
35.418
35.112
34.827
34.536
34.232
33.965
33.767
33.63
33.53
33.436
33.36
33.309
33.243
33.18
33.118
33.026
32.917
32.838
32.805
32.765
32.697
32.701
32.941
33.622
34.843
36.454
38.096
39.429
40.264
40.608
40.594
40.405
40.165
39.935
39.722
39.496
39.224
38.895
38.536
38.205
37.948
37.8
37.757
37.783
37.817
37.804
37.712
37.546
37.325
37.067
36.8
36.529
36.267
36.026
35.791
35.551
35.324
35.137
34.981
34.824
34.664
34.537
34.441
34.331
34.2
34.091
34.019
33.981
33.918
33.83
33.871
34.283
35.229
36.652
38.291
39.843
41.073
41.89
42.321
42.49
42.552
42.6
42.617
42.534
42.325
41.975
41.495
40.949
40.426
39.995
39.689
39.507
39.413
39.358
39.285
39.137
38.902
38.607
38.286
37.954
37.623
37.294
36.959
36.619
36.297
36.017
35.793
35.61
35.438
35.26
35.081
34.92
34.839
35.019
35.665
36.849
38.395
39.975
41.267
42.092
42.475
42.549
42.478
42.357
42.208
42.019
41.762
41.382
40.826
40.143
39.44
38.848
38.435
38.198
38.093
38.053
38.005
37.891
37.688
37.411
37.068
36.703
36.348
35.984
35.629
35.298
34.99
34.7
34.425
34.26
34.389
35.021
36.212
37.752
39.258
40.403
41.08
41.34
41.318
41.168
40.993
40.806
40.563
40.227
39.751
39.119
38.401
37.72
37.184
36.84
36.688
36.667
36.68
36.632
36.475
36.229
35.931
35.615
35.304
34.973
34.611
34.243
33.915
33.681
33.639
33.958
34.809
36.152
37.681
39.061
40.075
40.657
40.871
40.876
40.802
40.7
40.559
40.359
40.062
39.625
39.017
38.269
37.532
36.952
36.569
36.354
36.251
36.201
36.138
36.006
35.802
35.543
35.232
34.89
34.551
34.251
33.986
33.73
33.487
33.251
33.025
32.922
33.161
33.96
35.334
37.009
38.557
39.689
40.329
40.568
40.589
40.563
40.535
40.492
40.433
40.311
40.046
39.583
38.925
38.172
37.457
36.902
36.555
36.394
36.319
36.224
36.049
35.799
35.514
35.23
34.951
34.654
34.321
33.97
33.639
33.364
33.132
32.931
32.755
32.593
32.443
32.309
32.191
32.105
32.036
31.965
31.899
31.827
31.76
31.803
32.169
33.034
34.382
35.963
37.41
38.468
39.077
39.352
39.477
39.558
39.635
39.69
39.692
39.603
39.385
38.998
38.446
37.792
37.136
36.589
36.229
36.073
36.054
36.055
35.983
35.808
35.554
35.268
34.966
34.687
34.428
34.167
33.912
33.646
33.394
33.189
33.027
32.893
32.776
32.656
32.537
32.432
32.337
32.253
32.174
32.105
32.046
32.004
31.958
31.876
31.76
31.698
31.879
32.517
33.662
35.094
36.505
37.605
38.242
38.498
38.547
38.546
38.568
38.592
38.564
38.452
38.26
37.968
37.553
37.006
36.406
35.888
35.57
35.463
35.492
35.566
35.605
35.561
35.406
35.163
34.909
34.693
34.497
34.252
33.966
33.698
33.502
33.406
33.357
33.267
33.117
32.963
32.861
32.813
32.78
32.731
32.671
32.597
32.5
32.41
32.365
32.353
32.33
32.264
32.17
32.092
32.102
32.361
33.049
34.203
35.632
36.997
37.993
38.518
38.681
38.637
38.533
38.435
38.35
38.282
38.186
38.014
37.738
37.348
36.875
36.412
36.036
35.8
35.726
35.769
35.82
35.813
35.72
35.546
35.334
35.126
34.934
34.73
34.507
34.288
34.095
33.928
33.787
33.65
33.529
33.437
33.359
33.292
33.226
33.157
33.098
33.045
32.99
32.931
32.867
32.805
32.755
32.717
32.67
32.625
32.607
32.646
32.889
33.561
34.716
36.126
37.449
38.394
38.854
38.912
38.77
38.58
38.418
38.284
38.161
38.032
37.844
37.556
37.203
36.822
36.483
36.271
36.196
36.225
36.281
36.311
36.295
36.224
36.095
35.912
35.684
35.444
35.223
35.015
34.833
34.697
34.568
34.425
34.277
34.166
34.098
34.054
33.995
33.897
33.781
33.681
33.609
33.546
33.484
33.415
33.353
33.309
33.268
33.209
33.127
33.067
33.212
33.786
34.872
36.299
37.746
38.897
39.576
39.807
39.759
39.6
39.431
39.299
39.202
39.126
39.034
38.868
38.601
38.261
37.915
37.639
37.484
37.424
37.415
37.428
37.41
37.326
37.182
37.002
36.804
36.592
36.357
36.093
35.832
35.596
35.384
35.205
35.077
34.978
34.856
34.699
34.56
34.471
34.412
34.346
34.248
34.111
33.978
33.873
33.797
33.74
33.669
33.562
33.459
33.464
33.776
34.596
35.92
37.477
38.889
39.896
40.422
40.577
40.52
40.386
40.256
40.137
40.027
39.915
39.776
39.553
39.219
38.815
38.455
38.211
38.087
38.054
38.068
38.08
38.047
37.948
37.757
37.498
37.224
36.934
36.638
36.345
36.06
35.797
35.567
35.359
35.16
34.983
34.832
34.715
34.611
34.493
34.358
34.225
34.103
33.992
33.917
34.009
34.464
35.432
36.837
38.376
39.7
40.591
41.052
41.199
41.134
40.937
40.718
40.524
40.333
40.091
39.779
39.41
39.033
38.694
38.432
38.273
38.22
38.235
38.27
38.27
38.156
37.901
37.576
37.259
36.974
36.717
36.473
36.194
35.875
35.577
35.317
35.088
34.897
34.775
34.85
35.319
36.333
37.812
39.417
40.772
41.666
42.085
42.17
42.061
41.832
41.54
41.221
40.892
40.516
40.069
39.566
39.054
38.625
38.35
38.223
38.194
38.21
38.193
38.087
37.883
37.624
37.335
37.008
36.664
36.307
35.925
35.537
35.21
35.06
35.283
36.057
37.409
39.129
40.828
42.174
43.021
43.402
43.451
43.303
43.079
42.818
42.518
42.154
41.659
41.049
40.384
39.75
39.23
38.844
38.585
38.454
38.39
38.296
38.132
37.882
37.563
37.18
36.747
36.3
35.877
35.489
35.155
35.009
35.333
36.339
37.962
39.874
41.669
43.072
43.992
44.476
44.64
44.615
44.479
44.241
43.9
43.435
42.82
42.063
41.217
40.373
39.633
39.074
38.688
38.433
38.244
38.049
37.814
37.528
37.197
36.827
36.41
35.944
35.472
35.011
34.56
34.144
33.872
34.014
34.876
36.502
38.612
40.777
42.618
43.96
44.816
45.294
45.48
45.447
45.256
44.93
44.473
43.882
43.144
42.226
41.175
40.145
39.289
38.642
38.188
37.887
37.677
37.483
37.22
36.858
36.428
35.967
35.493
34.981
34.439
33.903
33.41
32.973
32.593
32.254
31.944
31.679
31.452
31.256
31.079
30.905
30.735
30.581
30.433
30.308
30.2
30.092
29.967
29.822
29.675
29.556
29.475
29.434
29.577
30.229
31.679
33.935
36.661
39.36
41.634
43.308
44.38
44.957
45.181
45.212
45.145
44.976
44.673
44.191
43.489
42.613
41.707
40.878
40.174
39.626
39.234
38.994
38.843
38.649
38.338
37.943
37.513
37.044
36.526
35.99
35.482
34.996
34.516
34.066
33.666
33.304
32.98
32.686
32.436
32.224
32.011
31.792
31.557
31.323
31.134
31.004
30.904
30.787
30.658
30.527
30.399
30.379
30.695
31.656
33.402
35.763
38.332
40.705
42.609
43.921
44.673
44.988
45.016
44.864
44.6
44.263
43.803
43.177
42.388
41.487
40.593
39.827
39.26
38.88
38.624
38.427
38.222
37.956
37.609
37.196
36.746
36.274
35.776
35.246
34.712
34.208
33.766
33.382
33.022
32.649
32.293
32.014
31.819
31.667
31.518
31.363
31.212
31.067
30.923
30.79
30.754
31.064
32.011
33.73
36.072
38.62
40.931
42.703
43.825
44.36
44.47
44.299
43.962
43.525
43.009
42.396
41.66
40.818
39.956
39.174
38.523
38.016
37.663
37.437
37.27
37.104
36.896
36.606
36.228
35.777
35.285
34.789
34.291
33.803
33.319
32.862
32.479
32.138
31.795
31.456
31.171
30.964
30.826
30.732
30.63
30.506
30.387
30.378
30.759
31.818
33.621
35.989
38.526
40.777
42.442
43.435
43.847
43.826
43.52
43.049
42.491
41.904
41.264
40.516
39.7
38.926
38.273
37.769
37.439
37.251
37.145
37.063
36.946
36.743
36.431
36.047
35.622
35.165
34.7
34.222
33.738
33.283
32.885
32.549
32.247
31.968
31.713
31.535
31.591
32.166
33.501
35.567
38.028
40.412
42.337
43.601
44.195
44.265
43.966
43.429
42.764
42.045
41.271
40.418
39.509
38.62
37.852
37.292
36.973
36.88
36.924
36.953
36.881
36.697
36.42
36.068
35.639
35.16
34.663
34.157
33.663
33.201
32.782
32.406
32.131
32.162
32.817
34.344
36.623
39.217
41.633
43.501
44.654
45.157
45.167
44.827
44.269
43.577
42.791
41.922
40.95
39.9
38.867
37.97
37.312
36.915
36.754
36.735
36.726
36.618
36.361
36.004
35.602
35.176
34.727
34.245
33.718
33.189
32.707
32.345
32.326
33.012
34.633
37.023
39.739
42.307
44.311
45.57
46.119
46.127
45.776
45.23
44.586
43.856
42.982
41.947
40.795
39.625
38.573
37.725
37.111
36.737
36.558
36.474
36.357
36.131
35.789
35.376
34.928
34.451
33.937
33.391
32.837
32.332
32.001
32.128
33.063
34.989
37.698
40.658
43.292
45.241
46.399
46.864
46.817
46.412
45.808
45.105
44.305
43.392
42.318
41.094
39.817
38.643
37.698
37.018
36.594
36.337
36.147
35.933
35.64
35.258
34.806
34.333
33.84
33.313
32.768
32.243
31.743
31.269
30.838
30.618
30.94
32.139
34.334
37.287
40.485
43.341
45.434
46.669
47.185
47.199
46.871
46.304
45.603
44.823
43.946
42.912
41.704
40.392
39.098
37.951
37.05
36.447
36.104
35.895
35.7
35.431
35.096
34.705
34.223
33.633
32.992
32.356
31.752
31.209
30.733
30.315
29.942
29.614
29.329
29.092
28.883
28.715
28.572
28.421
28.256
28.096
27.966
27.883
27.819
27.756
27.677
27.604
27.724
28.449
30.151
32.895
36.368
39.996
43.182
45.572
47.067
47.746
47.824
47.528
47.002
46.357
45.615
44.741
43.723
42.572
41.38
40.281
39.356
38.652
38.168
37.848
37.62
37.421
37.173
36.811
36.323
35.758
35.149
34.512
33.903
33.316
32.729
32.156
31.621
31.168
30.789
30.463
30.21
30.024
29.84
29.642
29.458
29.309
29.205
29.11
29.089
29.411
30.436
32.405
35.234
38.488
41.616
44.14
45.825
46.68
46.879
46.622
46.095
45.442
44.724
43.932
43.024
41.986
40.871
39.776
38.824
38.091
37.573
37.211
36.949
36.723
36.464
36.153
35.776
35.324
34.817
34.264
33.678
33.078
32.482
31.92
31.405
30.946
30.545
30.214
29.936
29.689
29.48
29.334
29.244
29.153
29.046
28.943
28.977
29.445
30.72
32.96
35.939
39.152
42.048
44.221
45.533
46.049
45.945
45.47
44.797
44.0
43.137
42.218
41.225
40.194
39.194
38.289
37.537
36.973
36.602
36.386
36.224
36.039
35.797
35.476
35.069
34.567
34.007
33.44
32.885
32.348
31.833
31.337
30.858
30.426
30.064
29.755
29.486
29.286
29.156
29.069
29.004
28.902
28.772
28.785
29.267
30.553
32.765
35.687
38.861
41.746
43.92
45.193
45.612
45.391
44.78
43.966
43.076
42.136
41.143
40.1
39.065
38.152
37.438
36.946
36.663
36.525
36.477
36.448
36.353
36.154
35.854
35.437
34.934
34.395
33.836
33.278
32.739
32.245
31.808
31.411
31.026
30.651
30.306
30.084
30.237
31.111
32.914
35.52
38.51
41.348
43.56
44.926
45.471
45.331
44.721
43.847
42.882
41.896
40.882
39.795
38.674
37.653
36.865
36.342
36.056
35.953
35.947
35.938
35.861
35.678
35.371
34.961
34.495
33.994
33.481
32.958
32.423
31.916
31.44
31.001
30.642
30.506
30.913
32.226
34.516
37.493
40.611
43.303
45.2
46.204
46.414
46.041
45.3
44.358
43.346
42.323
41.261
40.15
39.026
37.986
37.134
36.534
36.186
36.028
35.968
35.91
35.774
35.532
35.183
34.758
34.268
33.72
33.169
32.637
32.113
31.596
31.092
30.7
30.72
31.557
33.443
36.265
39.53
42.611
45.009
46.49
47.066
46.937
46.369
45.567
44.662
43.702
42.663
41.533
40.345
39.159
38.068
37.18
36.555
36.165
35.948
35.83
35.713
35.497
35.163
34.748
34.302
33.83
33.3
32.719
32.105
31.497
30.991
30.819
31.351
32.888
35.423
38.587
41.803
44.509
46.347
47.255
47.399
47.012
46.302
45.429
44.474
43.441
42.33
41.141
39.927
38.732
37.62
36.708
36.055
35.661
35.458
35.311
35.115
34.825
34.418
33.944
33.438
32.902
32.348
31.787
31.225
30.697
30.216
29.789
29.451
29.367
29.892
31.408
34.016
37.388
40.917
43.981
46.187
47.428
47.82
47.609
47.028
46.226
45.306
44.314
43.239
42.028
40.695
39.354
38.133
37.138
36.405
35.897
35.551
35.312
35.111
34.884
34.587
34.193
33.684
33.09
32.456
31.836
31.262
30.704
30.173
29.7
29.285
28.925
28.621
28.387
28.193
