36.317
36.039
35.771
35.536
35.349
35.208
35.081
34.931
34.762
34.619
34.538
34.483
34.326
33.987
33.525
33.134
33.082
33.767
35.513
38.18
41.124
43.534
44.881
45.12
44.522
43.486
42.36
41.338
40.513
39.883
39.366
38.869
38.357
37.836
37.3
36.806
36.48
36.373
36.383
36.345
36.161
35.849
35.514
35.242
35.045
34.9
34.766
34.622
34.47
34.324
34.185
34.048
33.906
33.758
33.616
33.5
33.417
33.39
33.553
34.264
35.718
37.581
39.181
39.964
39.798
38.955
37.886
36.945
36.275
35.836
35.521
35.25
34.995
34.768
34.583
34.447
34.363
34.313
34.276
34.235
34.178
34.101
34.007
33.908
33.809
33.707
33.598
33.496
33.41
33.34
33.278
33.217
33.159
33.107
33.066
33.033
33.012
33.002
33.009
33.138
33.74
35.105
36.965
38.634
39.512
39.439
38.692
37.729
36.904
36.341
35.984
35.713
35.455
35.204
34.985
34.822
34.712
34.651
34.627
34.612
34.588
34.548
34.492
34.419
34.332
34.239
34.154
34.073
33.997
33.923
33.852
33.786
33.731
33.686
33.655
33.629
33.598
33.552
33.5
33.481
33.64
34.335
35.775
37.608
39.149
39.87
39.688
38.916
37.992
37.227
36.708
36.375
36.125
35.896
35.672
35.466
35.288
35.156
35.081
35.056
35.056
35.044
35.009
34.945
34.851
34.737
34.62
34.504
34.395
34.305
34.232
34.17
34.112
34.052
33.994
33.944
33.896
33.845
33.801
33.837
34.276
35.554
37.602
39.76
41.256
41.68
41.13
40.038
38.893
38.0
37.418
37.044
36.746
36.462
36.183
35.929
35.73
35.602
35.545
35.536
35.533
35.499
35.417
35.292
35.149
35.004
34.864
34.735
34.611
34.5
34.403
34.315
34.237
34.171
34.113
34.07
34.038
34.005
33.982
34.199
35.231
37.374
40.173
42.675
44.059
44.077
43.049
41.567
40.166
39.106
38.384
37.873
37.452
37.065
36.713
36.406
36.164
36.008
35.95
35.968
36.004
35.991
35.896
35.733
35.527
35.304
35.09
34.903
34.745
34.608
34.484
34.375
34.273
34.167
34.062
33.97
33.897
33.838
33.778
33.729
33.827
34.561
36.376
39.029
41.651
43.333
43.67
42.867
41.468
40.044
38.931
38.188
37.688
37.288
36.912
36.551
36.235
35.994
35.842
35.791
35.819
35.878
35.895
35.821
35.659
35.449
35.237
35.054
34.896
34.754
34.617
34.486
34.363
34.255
34.167
34.094
34.032
33.973
33.908
33.839
33.818
34.087
35.135
37.138
39.59
41.613
42.547
42.289
41.215
39.881
38.719
37.893
37.347
36.947
36.602
36.276
35.976
35.731
35.565
35.483
35.481
35.526
35.56
35.532
35.423
35.243
35.029
34.823
34.653
34.517
34.411
34.318
34.222
34.119
34.021
33.94
33.883
33.841
33.808
33.784
33.855
34.474
36.199
38.951
41.905
44.021
44.71
44.061
42.613
40.988
39.615
38.647
38.005
37.53
37.109
36.708
36.348
36.056
35.861
35.778
35.794
35.865
35.919
35.896
35.779
35.587
35.361
35.128
34.915
34.739
34.593
34.463
34.338
34.216
34.108
34.015
33.935
33.864
33.793
33.721
33.659
33.682
34.186
35.784
38.551
41.725
44.2
45.25
44.84
43.46
41.755
40.235
39.12
38.375
37.845
37.39
36.963
36.568
36.231
35.982
35.837
35.787
35.801
35.817
35.779
35.656
35.46
35.228
34.992
34.774
34.58
34.408
34.262
34.136
34.015
33.894
33.778
33.681
33.598
33.524
33.453
33.378
33.312
33.288
33.493
34.479
36.622
39.515
42.159
43.645
43.672
42.571
40.988
39.509
38.421
37.717
37.242
36.848
36.471
36.112
35.804
35.571
35.428
35.37
35.369
35.385
35.371
35.292
35.148
34.97
34.787
34.614
34.455
34.312
34.186
34.075
33.982
33.908
33.842
33.772
33.695
33.621
33.553
33.495
33.456
33.488
33.883
35.105
37.164
39.423
41.035
41.494
40.868
39.654
38.397
37.434
36.818
36.43
36.125
35.822
35.526
35.269
35.065
34.919
34.827
34.766
34.718
34.671
34.618
34.533
34.412
34.273
34.14
34.029
33.939
33.863
33.792
33.719
33.641
33.568
33.52
33.5
33.484
33.458
33.424
33.43
33.773
35.045
37.4
40.185
42.357
43.204
42.701
41.353
39.82
38.57
37.735
37.214
36.85
36.526
36.191
35.868
35.596
35.396
35.267
35.2
35.178
35.177
35.165
35.109
35.001
34.859
34.701
34.553
34.425
34.315
34.219
34.143
34.073
33.995
33.913
33.836
33.768
33.709
33.653
33.617
33.802
34.809
37.024
39.992
42.657
44.095
44.04
42.875
41.264
39.791
38.728
38.048
37.585
37.193
36.815
36.46
36.151
35.895
35.7
35.564
35.498
35.488
35.487
35.445
35.343
35.198
35.036
34.874
34.726
34.596
34.477
34.368
34.28
34.204
34.122
34.038
33.96
33.889
33.827
33.78
33.745
33.792
34.332
35.908
38.428
41.052
42.781
43.111
42.221
40.73
39.281
38.223
37.568
37.151
36.816
36.479
36.135
35.821
35.567
35.378
35.245
35.157
35.103
35.062
35.006
34.927
34.826
34.711
34.59
34.47
34.362
34.267
34.187
34.115
34.047
33.985
33.932
33.889
33.848
33.804
33.761
33.749
33.991
35.035
37.126
39.72
41.824
42.705
42.286
41.033
39.595
38.436
37.686
37.233
36.906
36.594
36.264
35.945
35.671
35.467
35.343
35.282
35.247
35.213
35.168
35.099
34.996
34.87
34.737
34.618
34.52
34.434
34.357
34.283
34.211
34.144
34.073
33.995
33.918
33.858
33.907
34.478
36.046
38.453
40.877
42.41
42.628
41.732
40.31
38.952
37.978
37.387
37.011
36.692
36.36
36.037
35.763
35.56
35.426
35.341
35.284
35.238
35.191
35.129
35.041
34.924
34.787
34.656
34.542
34.445
34.355
34.264
34.184
34.123
34.076
34.031
33.98
33.95
34.188
35.367
37.908
41.3
44.351
46.016
45.997
44.699
42.853
41.115
39.817
38.964
38.385
37.909
37.464
37.047
36.685
36.407
36.233
36.173
36.216
36.314
36.38
36.34
36.177
35.929
35.654
35.393
35.165
34.977
34.821
34.683
34.554
34.427
34.309
34.201
34.113
34.051
34.103
34.763
36.633
39.621
42.807
45.055
45.735
44.959
43.316
41.486
39.952
38.872
38.162
37.654
37.214
36.799
36.427
36.133
35.944
35.871
35.891
35.951
35.974
35.902
35.727
35.483
35.221
34.976
34.763
34.586
34.431
34.286
34.146
34.014
33.902
33.816
33.746
33.681
33.63
33.674
34.241
35.939
38.746
41.816
44.04
44.766
44.061
42.5
40.776
39.364
38.403
37.786
37.335
36.932
36.554
36.221
35.957
35.788
35.737
35.797
35.905
35.971
35.941
35.812
35.613
35.374
35.136
34.932
34.768
34.626
34.49
34.365
34.26
34.161
34.064
33.974
33.911
33.916
34.265
35.513
37.846
40.674
42.981
44.014
43.665
42.373
40.771
39.359
38.348
37.684
37.207
36.795
36.414
36.083
35.831
35.673
35.611
35.634
35.692
35.717
35.661
35.517
35.313
35.097
34.9
34.727
34.573
34.437
34.321
34.22
34.126
34.037
33.957
33.896
33.891
34.21
35.532
38.255
41.852
45.116
46.981
47.106
45.857
43.942
42.027
40.491
39.399
38.631
38.034
37.518
37.06
36.685
36.439
36.379
36.527
36.814
37.084
37.184
37.058
36.754
36.357
35.951
35.585
35.275
35.021
34.811
34.63
34.468
34.325
34.191
34.069
33.961
33.877
33.917
34.581
36.563
39.916
43.761
46.791
48.109
47.671
46.062
44.017
42.108
40.601
39.488
38.643
37.945
37.348
36.868
36.541
36.419
36.543
36.872
37.265
37.543
37.584
37.36
36.926
36.391
35.866
35.419
35.059
34.77
34.533
34.333
34.155
33.986
33.837
33.717
33.612
33.514
33.433
33.485
34.144
36.063
39.303
43.035
46.013
47.355
46.973
45.395
43.347
41.426
39.924
38.851
38.063
37.417
36.849
36.372
36.018
35.831
35.838
36.019
36.277
36.471
36.495
36.324
35.996
35.582
35.156
34.776
34.465
34.227
34.041
33.878
33.725
33.583
33.451
33.336
33.254
33.203
33.157
33.096
33.047
33.126
33.863
35.94
39.355
43.159
46.04
47.153
46.523
44.797
42.751
40.934
39.566
38.599
37.873
37.263
36.742
36.331
36.051
35.949
36.092
36.446
36.848
37.097
37.07
36.768
36.293
35.785
35.346
34.998
34.72
34.486
34.286
34.105
33.935
33.786
33.662
33.558
33.463
33.372
33.293
33.286
33.704
35.164
37.853
41.122
43.844
45.149
44.876
43.468
41.59
39.818
38.451
37.517
36.891
36.417
36.004
35.642
35.368
35.239
35.307
35.558
35.872
36.082
36.073
35.845
35.487
35.099
34.748
34.456
34.222
34.025
33.851
33.7
33.568
33.454
33.346
33.248
33.167
33.112
33.077
33.059
33.169
33.957
36.107
39.583
43.398
46.228
47.266
46.561
44.761
42.631
40.728
39.288
38.281
37.56
36.983
36.486
36.078
35.787
35.643
35.694
35.953
36.318
36.608
36.681
36.498
36.117
35.642
35.169
34.762
34.439
34.179
33.965
33.782
33.63
33.505
33.401
33.31
33.226
33.14
33.061
32.992
32.938
32.927
33.207
34.408
36.921
40.286
43.392
45.207
45.352
44.138
42.243
40.337
38.823
37.786
37.097
36.58
36.121
35.696
35.333
35.065
34.916
34.908
35.028
35.2
35.321
35.322
35.175
34.911
34.598
34.29
34.02
33.801
33.626
33.481
33.35
33.23
33.127
33.053
33.001
32.957
32.909
32.86
32.815
32.796
32.96
33.877
36.101
39.403
42.734
44.924
45.409
44.398
42.563
40.621
39.049
37.975
37.272
36.754
36.304
35.887
35.53
35.283
35.182
35.254
35.474
35.738
35.911
35.905
35.707
35.37
34.989
34.639
34.354
34.131
33.955
33.808
33.683
33.575
33.472
33.37
33.275
33.19
33.114
33.056
33.052
33.376
34.655
37.184
40.394
43.159
44.557
44.368
43.009
41.164
39.431
38.123
37.263
36.702
36.259
35.838
35.449
35.138
34.94
34.878
34.952
35.116
35.283
35.36
35.292
35.09
34.81
34.521
34.272
34.064
33.883
33.727
33.609
33.513
33.42
33.326
33.244
33.189
33.156
33.126
33.094
33.123
33.644
35.421
38.651
42.505
45.627
47.028
46.585
44.873
42.688
40.677
39.156
38.13
37.44
36.905
36.423
35.986
35.622
35.377
35.289
35.385
35.641
35.945
36.136
36.117
35.886
35.517
35.106
34.73
34.424
34.183
33.987
33.819
33.666
33.525
33.396
33.283
33.191
33.129
33.086
33.045
32.994
32.97
33.283
34.625
37.357
40.899
44.026
45.689
45.597
44.169
42.148
40.211
38.735
37.752
37.101
36.596
36.136
35.708
35.335
35.044
34.858
34.791
34.831
34.933
35.023
35.035
34.946
34.768
34.541
34.31
34.1
33.921
33.773
33.644
33.52
33.399
33.301
33.231
33.17
33.108
33.046
32.993
32.958
33.046
33.762
35.721
38.81
42.063
44.301
44.907
44.023
42.296
40.455
38.98
37.986
37.336
36.849
36.404
35.981
35.613
35.337
35.174
35.123
35.175
35.286
35.379
35.39
35.287
35.079
34.817
34.558
34.338
34.16
34.009
33.876
33.759
33.666
33.588
33.518
33.45
33.376
33.301
33.25
33.336
34.019
35.826
38.612
41.476
43.38
43.808
42.927
41.329
39.666
38.351
37.475
36.913
36.49
36.106
35.748
35.433
35.183
35.029
34.985
35.028
35.101
35.138
35.087
34.945
34.745
34.539
34.347
34.168
34.011
33.882
33.776
33.683
33.595
33.505
33.415
33.336
33.274
33.233
33.281
33.866
35.705
38.896
42.565
45.424
46.611
46.089
44.446
42.432
40.626
39.286
38.383
37.759
37.264
36.823
36.427
36.112
35.93
35.943
36.169
36.519
36.811
36.888
36.704
36.326
35.883
35.472
35.13
34.854
34.623
34.416
34.225
34.053
33.91
33.794
33.7
33.623
33.568
33.603
34.144
35.89
39.031
42.831
46.025
47.618
47.403
45.861
43.739
41.673
40.022
38.845
38.016
37.394
36.887
36.471
36.176
36.07
36.221
36.625
37.141
37.555
37.699
37.534
37.127
36.595
36.052
35.569
35.168
34.842
34.571
34.345
34.148
33.969
33.811
33.683
33.581
33.489
33.412
33.411
33.819
35.297
38.135
41.744
44.915
46.6
46.499
45.025
42.9
40.794
39.111
37.929
37.125
36.529
36.027
35.598
35.268
35.073
35.049
35.211
35.513
35.837
36.04
36.024
35.79
35.407
34.972
34.565
34.234
33.979
33.785
33.623
33.465
33.312
33.187
33.094
33.023
32.96
32.902
32.874
33.069
34.147
36.723
40.532
44.377
46.895
47.415
46.184
43.98
41.611
39.623
38.199
37.261
36.625
36.13
35.707
35.37
35.187
35.255
35.608
36.143
36.644
36.912
36.863
36.536
36.045
35.519
35.047
34.659
34.349
34.099
33.898
33.725
33.564
33.424
33.311
33.221
33.148
33.101
33.201
33.968
36.036
39.351
42.964
45.591
46.438
45.551
43.566
41.267
39.249
37.774
36.809
36.177
35.704
35.314
35.001
34.811
34.825
35.101
35.582
36.079
36.381
36.375
36.082
35.617
35.11
34.658
34.295
34.011
33.788
33.61
33.459
33.328
33.211
33.104
33.016
32.956
32.991
33.536
35.373
38.808
43.07
46.675
48.421
48.075
46.236
43.759
41.325
39.325
37.873
36.879
36.178
35.65
35.259
35.031
35.053
35.408
36.063
36.821
37.401
37.612
37.422
36.927
36.279
35.611
35.016
34.529
34.148
33.854
33.626
33.441
33.28
33.14
33.028
32.943
32.879
32.864
33.192
34.595
37.616
41.845
45.909
48.384
48.708
47.275
44.919
42.401
40.191
38.47
37.214
36.315
35.675
35.232
34.974
34.955
35.248
35.849
36.606
37.264
37.603
37.548
37.158
36.552
35.864
35.191
34.604
34.144
33.801
33.547
33.343
33.173
33.035
32.918
32.818
32.735
32.664
32.61
32.672
33.299
35.229
38.717
42.984
46.556
48.267
47.921
46.116
43.684
41.28
39.265
37.743
36.658
35.889
35.345
34.971
34.756
34.763
35.063
35.628
36.272
36.74
36.862
36.618
36.108
35.469
34.831
34.28
33.839
33.501
33.239
33.025
32.846
32.7
32.577
32.467
32.382
32.324
32.281
32.243
32.219
32.34
33.164
35.434
39.218
43.504
46.748
47.945
47.12
45.01
42.485
40.188
38.428
37.211
36.386
35.789
35.325
34.973
34.785
34.859
35.262
35.923
36.607
37.046
37.105
36.808
36.283
35.669
35.079
34.573
34.171
33.862
33.624
33.428
33.251
33.097
32.976
32.886
32.82
32.76
32.701
32.675
32.897
33.987
36.466
40.041
43.595
45.871
46.256
44.984
42.787
40.448
38.508
37.155
36.296
35.725
35.274
34.877
34.553
34.379
34.46
34.831
35.378
35.872
36.094
35.971
35.584
35.074
34.568
34.134
33.789
33.524
33.32
33.153
33.005
32.869
32.753
32.665
32.607
32.566
32.533
32.526
32.775
33.982
36.778
40.873
44.973
47.608
48.078
46.684
44.275
41.707
39.54
37.977
36.939
36.241
35.712
35.271
34.921
34.718
34.748
35.059
35.596
36.177
36.568
36.627
36.365
35.883
35.313
34.765
34.308
33.955
33.687
33.471
33.284
33.115
32.966
32.848
32.754
32.671
32.595
32.539
32.541
32.944
34.532
37.774
42.099
46.054
48.274
48.323
46.679
44.226
41.751
39.716
38.243
37.241
36.537
35.994
35.552
35.207
35.01
35.057
35.394
35.937
36.484
36.815
36.816
36.502
35.981
35.394
34.849
34.404
34.054
33.775
33.549
33.361
33.2
33.066
32.959
32.866
32.782
32.716
32.675
32.646
32.634
32.81
33.787
36.176
39.792
43.549
46.122
46.784
45.696
43.589
41.279
39.332
37.954
37.054
36.43
35.923
35.475
35.093
34.809
34.664
34.708
34.947
35.279
35.539
35.614
35.483
35.193
34.833
34.468
34.139
33.871
33.669
33.51
33.371
33.242
33.129
33.036
32.969
32.931
32.907
32.876
32.826
32.771
32.747
32.882
33.648
35.579
38.522
41.546
43.56
43.999
43.026
41.279
39.463
38.034
37.091
36.498
36.066
35.675
35.296
34.958
34.697
34.531
34.476
34.53
34.65
34.755
34.773
34.675
34.487
34.269
34.066
33.894
33.744
33.594
33.448
33.322
33.218
33.131
33.057
32.99
32.922
32.858
32.815
32.891
33.572
35.499
38.618
41.98
44.363
45.061
44.169
42.334
40.331
38.702
37.608
36.929
36.461
36.057
35.655
35.265
34.937
34.722
34.636
34.668
34.767
34.853
34.851
34.739
34.551
34.328
34.109
33.921
33.774
33.652
33.537
33.418
33.303
33.207
33.132
33.075
33.039
33.023
33.11
33.795
35.797
39.122
42.789
45.453
46.294
45.376
43.381
41.153
39.315
38.076
37.315
36.795
36.342
35.901
35.5
35.185
34.989
34.918
34.963
35.085
35.202
35.234
35.133
34.926
34.666
34.399
34.167
33.978
33.816
33.669
33.539
33.424
33.333
33.262
33.193
33.115
33.055
33.11
33.73
35.568
38.614
41.95
44.359
45.115
44.274
42.457
40.436
38.768
37.646
36.953
36.474
36.058
35.656
35.291
35.009
34.831
34.769
34.811
34.901
34.967
34.961
34.866
34.694
34.48
34.265
34.066
33.884
33.729
33.6
33.489
33.39
33.297
33.215
33.145
33.081
33.037
33.088
33.61
35.175
37.793
40.671
42.738
43.345
42.546
40.913
39.147
37.737
36.81
36.239
35.844
35.497
35.164
34.867
34.635
34.492
34.432
34.431
34.458
34.475
34.446
34.361
34.229
34.08
33.942
33.824
33.719
33.622
33.525
33.432
33.35
33.29
33.253
33.231
33.207
33.192
33.304
33.964
35.62
38.097
40.558
42.081
42.232
41.207
39.607
38.057
36.916
36.21
35.783
35.469
35.174
34.888
34.641
34.465
34.367
34.336
34.346
34.36
34.352
34.317
34.252
34.156
34.045
33.94
33.846
33.761
33.691
33.63
33.571
33.515
33.464
33.414
33.365
33.331
33.374
33.792
35.094
37.342
39.878
41.735
42.293
41.578
40.117
38.554
37.322
36.53
36.053
35.715
35.407
35.119
34.875
34.687
34.564
34.508
34.499
34.505
34.496
34.46
34.399
34.317
34.22
34.112
34.008
33.919
33.839
33.771
33.713
33.655
33.595
33.546
33.505
33.483
33.542
33.965
35.263
37.511
40.042
41.884
42.421
41.686
40.207
38.626
37.381
36.587
36.129
35.821
35.542
35.258
34.989
34.775
34.641
34.589
34.595
34.619
34.623
34.589
34.512
34.408
34.298
34.197
34.111
34.038
33.971
33.898
33.819
33.745
33.686
33.647
33.624
33.624
33.719
34.306
35.913
38.443
41.05
42.731
42.98
41.977
40.334
38.712
37.501
36.751
36.304
35.981
35.674
35.365
35.089
34.892
34.79
34.769
34.79
34.814
34.81
34.766
34.692
34.601
34.494
34.378
34.268
34.169
34.079
33.996
33.925
33.867
33.823
33.782
33.747
33.761
34.083
35.291
37.626
40.498
42.832
43.816
43.332
41.848
40.063
38.537
37.484
36.841
36.422
36.071
35.732
35.421
35.176
35.034
34.998
35.04
35.113
35.172
35.176
35.109
34.988
34.847
34.707
34.569
34.433
34.306
34.197
34.104
34.02
33.949
33.894
33.85
33.846
34.129
35.311
37.702
40.756
43.365
44.617
44.298
42.837
40.952
39.26
38.047
37.281
36.789
36.409
36.06
35.736
35.47
35.308
35.271
35.352
35.49
35.603
35.632
35.555
35.404
35.22
35.026
34.831
34.645
34.486
34.346
34.221
34.11
34.018
33.943
33.884
33.876
34.177
35.403
37.882
41.068
43.826
45.202
44.956
43.507
41.565
39.756
38.407
37.534
36.979
36.562
36.187
35.85
35.586
35.435
35.418
35.528
35.71
35.867
35.916
35.828
35.636
35.388
35.121
34.864
34.641
34.458
34.306
34.183
34.075
33.978
33.883
33.794
33.757
34.022
35.201
37.662
40.906
43.809
45.368
45.266
43.88
41.916
40.028
38.583
37.628
37.01
36.556
36.17
35.828
35.56
35.409
35.414
35.573
35.817
36.026
36.097
35.996
35.764
35.471
35.178
34.912
34.679
34.483
34.312
34.16
34.027
33.907
33.792
33.693
33.646
33.845
34.876
37.214
40.528
43.739
45.732
46.013
44.825
42.846
40.804
39.165
38.036
37.302
36.791
36.378
36.014
35.72
35.557
35.6
35.844
36.185
36.463
36.552
36.421
36.127
35.751
35.378
35.052
34.775
34.543
34.345
34.176
34.031
33.903
33.79
33.686
33.6
33.589
33.987
35.469
38.31
41.865
44.906
46.427
46.176
44.606
42.461
40.407
38.827
37.768
37.08
36.583
36.164
35.81
35.561
35.49
35.645
35.991
36.383
36.644
36.663
36.451
36.098
35.691
35.298
34.951
34.655
34.398
34.169
33.975
33.82
33.705
33.618
33.535
33.461
33.456
33.851
35.326
38.175
41.767
44.87
46.462
46.259
44.692
42.518
40.427
38.805
37.71
36.99
36.469
36.035
35.666
35.416
35.362
35.551
35.933
36.347
36.611
36.63
36.42
36.059
35.631
35.212
34.845
34.535
34.274
34.052
33.871
33.724
33.595
33.483
33.384
33.303
33.305
33.739
35.277
38.188
41.832
44.957
46.516
46.249
44.621
42.409
40.308
38.695
37.612
36.904
36.388
35.952
35.582
35.333
35.288
35.493
35.89
36.325
36.612
36.639
36.41
36.018
35.57
35.142
34.768
34.459
34.205
33.991
33.812
33.658
33.521
33.404
33.309
33.242
33.25
33.652
35.158
38.128
41.958
45.345
47.135
46.973
45.306
42.962
40.693
38.937
37.76
36.987
36.41
35.922
35.533
35.312
35.352
35.71
36.303
36.916
37.325
37.4
37.154
36.699
36.168
35.664
35.233
34.886
34.609
34.374
34.17
33.993
33.846
33.738
33.656
33.598
33.638
34.176
35.901
39.067
43.008
46.41
48.151
47.936
46.243
43.87
41.521
39.599
38.208
37.252
36.578
36.091
35.774
35.707
36.023
36.753
37.709
38.554
39.009
38.976
38.547
37.888
37.149
36.439
35.816
35.3
34.886
34.555
34.282
34.054
33.858
33.681
33.52
33.412
33.533
34.418
36.682
40.271
44.194
47.072
48.034
47.114
44.994
42.479
40.161
38.336
37.035
36.143
35.529
35.122
34.934
35.07
35.623
36.527
37.519
38.278
38.583
38.407
37.857
37.104
36.32
35.616
35.031
34.563
34.191
33.894
33.658
33.472
33.334
33.232
33.146
33.11
33.415
34.817
37.972
42.528
46.987
49.745
50.149
48.603
46.012
43.212
40.732
38.776
37.329
36.269
35.497
35.007
34.883
35.253
36.142
37.375
38.614
39.501
39.809
39.526
38.807
37.854
36.851
35.927
35.147
34.529
34.065
33.728
33.482
33.297
33.156
33.042
32.942
32.857
32.871
33.415
35.363
39.272
44.419
49.004
51.49
51.526
49.78
47.23
44.616
42.307
40.4
38.863
37.616
36.623
35.952
35.757
36.161
37.138
38.463
39.781
40.723
41.05
40.753
39.987
38.955
37.831
36.745
35.792
35.021
34.439
34.015
33.711
33.498
33.361
33.291
33.264
33.246
33.204
33.127
33.097
33.495
35.156
38.762
43.824
48.645
51.586
52.121
50.807
48.577
46.177
44.013
42.236
40.83
39.68
38.693
37.889
37.402
37.369
37.844
38.738
39.806
40.712
41.178
41.089
40.495
39.555
38.452
37.343
36.341
35.498
34.819
34.286
33.876
33.562
33.32
33.142
33.039
33.016
33.057
33.123
33.171
33.168
33.089
32.937
32.789
32.965
34.232
37.39
42.267
47.336
50.807
51.869
50.903
48.842
46.516
44.405
42.685
41.348
40.275
39.335
38.51
37.916
37.705
37.967
38.667
39.613
40.486
40.977
40.94
40.411
39.538
38.493
37.423
36.431
35.575
34.883
34.345
33.929
33.609
33.367
33.196
33.092
33.049
33.049
33.076
33.115
33.141
33.143
33.112
33.034
32.899
32.701
32.457
32.296
32.663
34.387
38.085
43.196
48.017
50.938
51.456
50.138
47.938
45.611
43.556
41.901
40.602
39.531
38.593
37.816
37.34
37.317
37.801
38.675
39.679
40.491
40.852
40.67
40.021
39.079
38.024
36.985
36.055
35.287
34.687
34.228
33.874
33.594
33.37
33.198
33.085
33.024
33.002
33.007
33.026
33.044
33.052
33.038
32.982
32.87
32.706
32.498
32.279
32.195
32.71
34.624
38.41
43.408
47.954
50.566
50.838
49.353
47.034
44.612
42.489
40.787
39.446
38.339
37.4
36.695
36.372
36.535
37.17
38.133
39.166
39.963
40.286
40.072
39.407
38.459
37.404
36.384
35.495
34.774
34.217
33.799
33.486
33.244
33.051
32.9
32.792
32.725
32.698
32.702
32.724
32.742
32.744
32.731
32.692
32.603
32.462
32.282
32.105
32.074
32.669
34.661
38.43
43.275
47.592
49.986
50.104
48.52
46.128
43.654
41.498
39.78
38.43
37.323
36.419
35.795
35.574
35.831
36.535
37.537
38.577
39.346
39.631
39.393
38.751
37.869
36.898
35.956
35.124
34.442
33.917
33.523
33.228
33.004
32.821
32.67
32.556
32.484
32.456
32.456
32.472
32.496
32.513
32.513
32.487
32.428
32.33
32.199
32.059
31.974
32.235
33.544
36.544
41.027
45.7
48.974
50.009
49.014
46.805
44.223
41.828
39.867
38.354
37.19
36.28
35.621
35.286
35.357
35.867
36.743
37.779
38.692
39.216
39.233
38.791
38.03
37.104
36.151
35.285
34.574
34.026
33.604
33.276
33.018
32.815
32.651
32.521
32.433
32.381
32.357
32.361
32.382
32.408
32.426
32.427
32.401
32.34
32.245
32.123
32.005
32.016
32.613
34.548
38.154
42.758
46.864
49.143
49.223
47.615
45.166
42.61
40.39
38.655
37.356
36.381
35.649
35.149
34.94
35.115
35.713
36.635
37.646
38.451
38.822
38.688
38.131
37.313
36.399
35.526
34.774
34.172
33.706
33.338
33.04
32.801
32.612
32.471
32.367
32.304
32.275
32.262
32.256
32.261
32.27
32.277
32.267
32.233
32.175
32.098
32.015
31.968
32.189
33.344
36.073
40.238
44.694
47.925
49.032
48.134
45.984
43.419
41.034
39.116
37.697
36.668
35.889
35.297
34.909
34.809
35.09
35.771
36.715
37.643
38.261
38.396
38.059
37.39
36.558
35.709
34.943
34.317
33.835
33.467
33.173
32.924
32.708
32.523
32.376
32.281
32.231
32.207
32.191
32.17
32.151
32.137
32.134
32.125
32.092
32.045
32.05
32.418
33.834
36.77
40.863
44.913
47.58
48.208
47.033
44.807
42.312
40.083
38.353
37.112
36.228
35.565
35.056
34.706
34.581
34.802
35.425
36.331
37.232
37.829
37.954
37.623
36.979
36.204
35.435
34.752
34.19
33.742
33.385
33.107
32.884
32.697
32.548
32.437
32.359
32.314
32.298
32.3
32.304
32.299
32.279
32.244
32.202
32.182
32.267
32.86
34.639
37.865
41.9
45.472
47.453
47.484
45.974
43.68
41.3
39.282
37.785
36.752
36.026
35.468
35.022
34.709
34.616
34.859
35.47
36.306
37.078
37.523
37.537
37.173
36.566
35.863
35.184
34.592
34.114
33.735
33.43
33.18
32.98
32.815
32.672
32.55
32.458
32.404
32.381
32.377
32.372
32.358
32.33
32.29
32.256
32.294
32.724
34.222
37.144
40.983
44.57
46.768
47.11
45.889
43.792
41.51
39.522
38.025
36.978
36.234
35.669
35.228
34.913
34.765
34.883
35.355
36.122
36.929
37.477
37.592
37.293
36.725
36.062
35.426
34.873
34.409
34.018
33.698
33.438
33.228
33.056
32.906
32.785
32.701
32.649
32.605
32.567
32.535
32.499
32.458
32.469
32.808
34.089
36.712
40.295
43.788
46.09
46.673
45.709
43.792
41.592
39.62
38.117
37.068
36.331
35.766
35.305
34.952
34.774
34.889
35.365
36.105
36.872
37.401
37.544
37.311
36.818
36.211
35.6
35.054
34.601
34.235
33.938
33.689
33.472
33.282
33.126
33.008
32.916
32.853
32.808
32.761
32.71
32.671
32.749
33.354
35.089
38.105
41.751
44.893
46.591
46.574
45.215
43.164
41.041
39.241
37.896
36.955
36.283
35.77
35.378
35.133
35.126
35.468
36.161
37.02
37.762
38.161
38.151
37.802
37.253
36.641
36.057
35.55
35.126
34.762
34.442
34.159
33.911
33.698
33.523
33.388
33.277
33.166
33.047
32.947
32.971
33.521
35.209
38.231
41.995
45.357
47.284
47.413
46.082
43.973
41.734
39.786
38.289
37.21
36.432
35.871
35.498
35.349
35.536
36.116
36.987
37.889
38.544
38.794
38.637
38.195
37.604
36.961
36.321
35.727
35.204
34.769
34.419
34.149
33.947
33.789
33.664
33.563
33.471
33.384
33.308
33.325
33.766
35.193
37.931
41.586
45.094
47.333
47.784
46.684
44.666
42.375
40.262
38.542
37.242
36.293
35.63
35.221
35.1
35.355
36.026
36.999
38.011
38.764
39.072
38.922
38.432
37.744
36.979
36.235
35.569
35.005
34.549
34.196
33.928
33.724
33.565
33.439
33.342
33.266
33.192
33.123
33.164
33.676
35.219
38.069
41.776
45.242
47.348
47.629
46.37
44.238
41.876
39.716
37.956
36.625
35.67
35.027
34.681
34.691
35.139
36.019
37.148
38.207
38.905
39.113
38.876
38.335
37.638
36.89
36.154
35.483
34.913
34.46
34.118
33.861
33.659
33.498
33.365
33.25
33.142
33.043
32.97
33.042
33.621
35.251
38.162
41.848
45.175
47.072
47.173
45.818
43.676
41.364
39.261
37.524
36.175
35.19
34.537
34.219
34.292
34.82
35.771
36.936
38.002
38.692
38.886
38.636
38.072
37.333
36.531
35.759
35.082
34.528
34.088
33.746
33.491
33.315
33.186
33.089
33.007
32.931
32.854
32.799
32.896
33.511
35.177
38.118
41.805
45.085
46.905
46.922
45.491
43.275
40.89
38.737
36.986
35.646
34.68
34.063
33.815
34.006
34.681
35.757
36.999
38.082
38.742
38.876
38.547
37.914
37.135
36.318
35.54
34.858
34.301
33.866
33.538
33.292
33.108
32.975
32.881
32.812
32.754
32.705
32.696
32.863
33.595
35.424
38.478
42.113
45.153
46.649
46.387
44.797
42.541
40.187
38.085
36.371
35.061
34.134
33.574
33.398
33.674
34.432
35.557
36.782
37.791
38.349
38.397
38.034
37.416
36.664
35.876
35.132
34.483
33.956
33.546
33.235
33.013
32.85
32.73
32.64
32.568
32.498
32.426
32.389
32.52
33.198
34.949
37.958
41.639
44.81
46.452
46.291
44.739
42.471
40.08
37.931
36.186
34.867
33.943
33.392
33.222
33.478
34.205
35.325
36.586
37.649
38.25
38.317
37.936
37.273
36.481
35.669
34.918
34.275
33.752
33.348
33.051
32.831
32.669
32.563
32.502
32.462
32.411
32.342
32.309
32.515
33.426
35.545
38.868
42.578
45.427
46.558
45.925
44.079
41.707
39.344
37.302
35.693
34.507
33.691
33.214
33.074
33.33
34.05
35.156
36.377
37.378
37.925
37.973
37.619
37.012
36.286
35.532
34.819
34.196
33.692
33.305
33.025
32.819
32.666
32.555
32.477
32.419
32.358
32.286
32.285
32.654
33.951
36.591
40.277
43.927
46.309
46.824
45.687
43.562
41.123
38.846
36.974
35.558
34.543
33.865
33.485
33.429
33.783
34.6
35.759
36.966
37.884
38.304
38.209
37.727
37.026
36.241
35.467
34.762
34.165
33.696
33.344
33.084
32.892
32.75
32.647
32.58
32.535
32.495
32.464
32.503
32.852
34.036
36.504
40.067
43.743
46.295
47.025
46.055
44.008
41.579
39.27
37.346
35.878
34.828
34.119
33.703
33.602
33.92
34.725
35.917
37.21
38.245
38.779
38.763
38.304
37.555
36.67
35.78
34.984
34.332
33.825
33.437
33.145
32.933
32.787
32.694
32.646
32.634
32.631
32.61
32.573
32.61
33.059
34.525
37.362
41.153
44.733
46.909
47.187
45.877
43.665
41.218
38.987
37.185
35.842
34.893
34.263
33.901
33.84
34.186
34.99
36.126
37.295
38.166
38.536
38.399
37.891
37.174
36.372
35.58
34.869
34.281
33.825
33.475
33.201
32.987
32.823
32.713
32.657
32.644
32.647
32.638
32.612
32.609
32.831
33.78
35.997
39.451
43.278
46.202
47.349
46.684
44.773
42.34
39.962
37.968
36.458
35.386
34.651
34.166
33.914
33.977
34.478
35.434
36.643
37.742
38.419
38.555
38.216
37.56
36.758
35.939
35.187
34.55
34.042
33.644
33.331
33.084
32.898
32.769
32.695
32.669
32.67
32.669
32.645
32.584
32.519
32.606
33.298
35.196
38.432
42.299
45.545
47.155
46.902
45.24
42.882
40.461
38.394
36.841
35.756
35.007
34.491
34.172
34.104
34.414
35.18
36.284
37.416
38.224
38.506
38.276
37.69
36.931
36.133
35.38
34.73
34.202
33.787
33.461
33.196
32.978
32.809
32.696
32.628
32.589
32.568
32.546
32.509
32.477
32.624
33.445
35.521
38.869
42.669
45.682
47.0
46.508
44.732
42.392
40.085
38.169
36.755
35.778
35.102
34.618
34.284
34.156
34.374
35.031
36.019
37.052
37.81
38.101
37.92
37.395
36.688
35.935
35.229
34.625
34.139
33.756
33.451
33.197
32.986
32.827
32.718
32.644
32.582
32.514
32.444
32.401
32.513
33.209
35.055
38.145
41.786
44.828
46.35
46.126
44.57
42.364
40.125
38.241
36.852
35.893
35.221
34.722
34.365
34.211
34.384
34.964
35.851
36.773
37.437
37.679
37.507
37.026
36.374
35.679
35.035
34.492
34.062
33.728
33.465
33.248
33.07
32.937
32.839
32.76
32.695
32.633
32.567
32.532
32.723
33.649
35.812
39.114
42.698
45.403
46.469
45.861
44.09
41.842
39.698
37.988
36.775
35.946
35.354
34.917
34.633
34.584
34.907
35.635
36.597
37.482
38.02
38.098
37.777
37.208
36.54
35.878
35.29
34.801
34.401
34.068
33.791
33.562
33.377
33.227
33.112
33.015
32.92
32.843
32.906
33.493
35.145
38.002
41.478
44.513
46.192
46.216
44.891
42.835
40.66
38.786
37.365
36.359
35.655
35.164
34.856
34.795
35.1
35.817
36.796
37.735
38.344
38.478
38.187
37.619
36.93
36.243
35.626
35.1
34.669
34.319
34.032
33.801
33.614
33.452
33.302
33.161
33.05
33.053
33.45
34.759
37.299
40.726
44.071
46.271
46.783
45.769
43.821
41.592
39.558
37.932
36.736
35.888
35.307
34.968
34.928
35.291
36.08
37.126
38.117
38.75
38.886
38.577
37.982
37.262
36.531
35.861
35.298
34.85
34.497
34.219
33.998
33.806
33.625
33.456
33.315
33.216
33.235
33.659
34.981
37.505
40.894
44.19
46.355
46.872
45.903
44.008
41.797
39.719
38.005
36.7
35.759
35.132
34.812
34.861
35.372
36.32
37.48
38.512
39.131
39.235
38.904
38.29
37.532
36.736
35.998
35.384
34.907
34.545
34.256
34.017
33.823
33.661
33.517
33.388
33.3
33.351
33.857
35.327
38.023
41.53
44.831
46.879
47.21
46.061
44.04
41.758
39.647
37.917
36.603
35.657
35.041
34.772
34.93
35.582
36.645
37.851
38.857
39.41
39.445
39.05
38.372
37.565
36.758
36.032
35.426
34.955
34.602
34.329
34.103
33.918
33.765
33.632
33.519
33.451
33.542
34.125
35.689
38.455
41.964
45.169
47.055
47.237
46.004
43.96
41.686
39.592
37.863
36.525
35.547
34.924
34.705
34.974
35.777
36.985
38.276
39.289
39.789
39.731
39.234
38.48
37.62
36.768
36.006
35.379
34.891
34.53
34.264
34.065
33.909
33.785
33.676
33.561
33.449
33.444
33.829
35.093
37.587
41.041
44.474
46.763
47.341
46.373
44.426
42.118
39.914
38.053
36.586
35.49
34.771
34.486
34.711
35.467
36.645
37.974
39.096
39.741
39.827
39.443
38.758
37.921
37.043
36.206
35.473
34.882
34.436
34.111
33.883
33.726
33.624
33.557
33.501
33.443
33.392
33.42
33.774
34.942
37.319
40.705
44.156
46.535
47.228
46.345
44.428
42.097
39.828
37.88
36.335
35.189
34.431
34.101
34.271
34.976
36.129
37.482
38.677
39.414
39.573
39.224
38.537
37.671
36.753
35.887
35.147
34.562
34.13
33.819
33.591
33.43
33.321
33.251
33.202
33.148
33.08
33.043
33.201
33.959
35.82
38.889
42.491
45.441
46.821
46.46
44.804
42.499
40.109
37.991
36.29
35.015
34.132
33.637
33.573
34.011
34.962
36.27
37.618
38.647
39.123
39.026
38.488
37.698
36.812
35.939
35.151
34.492
33.978
33.6
33.331
33.148
33.028
32.95
32.894
32.844
32.791
32.74
32.758
33.084
34.204
36.548
39.957
43.501
45.992
46.752
45.855
43.86
41.424
39.056
37.053
35.51
34.396
33.669
33.344
33.479
34.118
35.208
36.54
37.796
38.653
38.939
38.691
38.072
37.255
36.374
35.521
34.763
34.145
33.681
33.349
33.113
32.94
32.816
32.738
32.689
32.648
32.61
32.605
32.806
33.646
35.626
38.79
42.392
45.243
46.486
46.016
44.304
41.999
39.646
37.578
35.934
34.719
33.895
33.455
33.459
33.978
34.994
36.316
37.612
38.546
38.928
38.77
38.21
37.419
36.539
35.673
34.907
34.287
33.821
33.48
33.218
33.01
32.858
32.77
32.724
32.684
32.632
32.613
32.827
33.73
35.838
39.159
42.862
45.694
46.825
46.213
44.372
41.976
39.577
37.498
35.851
34.637
33.824
33.409
33.442
34.001
35.062
36.428
37.761
38.719
39.115
38.967
38.412
37.614
36.712
35.818
35.013
34.35
33.846
33.487
33.24
33.073
32.961
32.881
32.806
32.726
32.672
32.744
33.245
34.693
37.406
40.996
44.356
46.365
46.584
45.302
43.139
40.711
38.448
36.565
35.12
34.104
33.512
33.387
33.784
34.696
35.97
37.307
38.369
38.925
38.934
38.511
37.822
37.01
36.178
35.398
34.714
34.161
33.753
33.476
33.29
33.155
33.041
32.922
32.801
32.716
32.784
33.333
34.883
37.714
41.355
44.652
46.528
46.613
45.241
43.044
40.614
38.359
36.475
35.025
34.013
33.453
33.399
33.909
34.95
36.324
37.698
38.738
39.245
39.2
38.725
37.975
37.092
36.201
35.393
34.721
34.205
33.847
33.619
33.474
33.365
33.251
33.128
33.027
33.026
33.363
34.51
36.861
40.229
43.661
46.012
46.678
45.773
43.84
41.496
39.195
37.189
35.58
34.403
33.7
33.537
33.969
34.966
36.356
37.819
38.989
39.616
39.653
39.209
38.463
37.576
36.66
35.808
35.081
34.499
34.051
33.715
33.474
33.298
33.154
33.023
32.914
32.884
33.119
34.052
36.15
39.399
42.982
45.704
46.78
46.173
44.377
42.034
39.665
37.573
35.877
34.609
33.822
33.577
33.913
34.805
36.096
37.48
38.61
39.249
39.338
38.973
38.309
37.49
36.63
35.815
35.109
34.547
34.133
33.837
33.622
33.456
33.313
33.167
33.027
32.959
33.145
33.995
35.994
39.184
42.792
45.609
46.795
46.274
44.519
42.167
39.757
37.617
35.873
34.563
33.729
33.444
33.778
34.709
36.062
37.512
38.688
39.318
39.337
38.866
38.101
37.213
36.323
35.514
34.84
34.324
33.952
33.687
33.491
33.334
33.193
33.052
32.927
32.87
33.03
33.773
35.592
38.634
42.242
45.224
46.643
46.318
44.686
42.388
39.973
37.799
36.021
34.68
33.808
33.469
33.726
34.566
35.846
37.277
38.488
39.192
39.293
38.885
38.151
37.262
36.353
35.525
34.841
34.315
33.93
33.658
33.464
33.321
33.199
33.081
32.967
32.883
32.932
33.44
34.931
37.713
41.343
44.675
46.612
46.75
45.393
43.176
40.711
38.421
36.511
35.043
34.041
33.561
33.669
34.377
35.578
37.012
38.315
39.165
39.421
39.138
38.49
37.648
36.741
35.872
35.116
34.507
34.051
33.729
33.505
33.347
33.236
33.154
33.077
32.997
32.967
33.198
34.15
36.306
39.637
43.277
45.983
46.963
46.218
44.281
41.813
39.356
37.228
35.547
34.335
33.62
33.46
33.892
34.877
36.239
37.649
38.754
39.311
39.279
38.781
37.998
37.093
36.191
35.382
34.72
34.227
33.877
33.621
33.414
33.242
33.107
32.994
32.892
32.83
32.914
33.469
35.018
37.862
41.534
44.851
46.7
46.704
45.198
42.837
40.266
37.931
36.028
34.596
33.652
33.243
33.423
34.192
35.427
36.862
38.137
38.939
39.136
38.802
38.116
37.264
36.373
35.524
34.774
34.171
33.732
33.432
33.235
33.101
33.0
32.914
32.823
32.727
32.668
32.818
33.6
35.553
38.797
42.578
45.604
46.93
46.427
44.589
42.109
39.571
37.333
35.546
34.236
33.417
33.146
33.483
34.407
35.757
37.231
38.469
39.185
39.27
38.814
38.013
37.06
36.105
35.234
34.493
33.904
33.471
33.185
33.005
32.895
32.827
32.774
32.71
32.633
32.595
32.788
33.668
35.764
39.12
42.887
45.759
46.871
46.186
44.244
41.733
39.215
37.032
35.323
34.098
33.359
33.152
33.527
34.468
35.804
37.225
38.375
38.995
39.024
38.559
37.781
36.866
35.943
35.108
34.415
33.877
33.486
33.218
33.035
32.91
32.824
32.754
32.677
32.595
32.572
32.844
33.919
36.306
39.908
43.7
46.35
47.111
46.083
43.883
41.23
38.688
36.568
34.962
33.847
33.213
33.104
33.586
34.642
36.084
37.569
38.723
39.291
39.235
38.693
37.857
36.909
35.98
35.151
34.459
33.924
33.54
33.272
33.078
32.938
32.837
32.754
32.671
32.604
32.681
33.28
34.98
38.067
41.933
45.257
46.926
46.672
44.939
42.444
39.824
37.489
35.605
34.201
33.29
32.919
33.156
34.008
35.347
36.877
38.217
39.054
39.269
38.937
38.235
37.348
36.418
35.545
34.8
34.223
33.799
33.492
33.268
33.105
32.981
32.868
32.747
32.629
32.604
32.955
34.214
36.829
40.522
44.126
46.367
46.695
45.374
43.068
40.451
37.993
35.926
34.329
33.227
32.67
32.721
33.402
34.616
36.124
37.575
38.625
39.075
38.924
38.327
37.485
36.549
35.623
34.781
34.087
33.569
33.212
32.967
32.794
32.673
32.594
32.541
32.492
32.458
32.592
33.314
35.199
38.437
42.267
45.332
46.641
46.063
44.13
41.561
38.952
36.657
34.812
33.457
32.629
32.381
32.76
33.743
35.174
36.737
38.059
38.839
38.963
38.531
37.754
36.83
35.885
35.004
34.249
33.652
33.225
32.944
32.765
32.652
32.575
32.511
32.435
32.346
32.3
32.486
33.357
35.473
38.899
42.731
45.591
46.601
45.765
43.67
41.024
38.395
36.118
34.325
33.057
32.335
32.197
32.68
33.76
35.269
36.876
38.189
38.916
38.976
38.491
37.683
36.741
35.785
34.89
34.124
33.529
33.113
32.845
32.682
32.582
32.514
32.466
32.43
32.389
32.391
32.655
33.679
35.999
39.557
43.327
45.947
46.661
45.593
43.374
40.704
38.117
35.914
34.21
33.032
32.406
32.396
33.052
34.322
35.965
37.586
38.785
39.322
39.189
38.564
37.673
36.687
35.722
34.855
34.138
33.596
33.222
32.972
32.801
32.688
32.626
32.589
32.551
32.527
32.633
33.206
34.801
37.745
41.505
44.8
46.494
46.275
44.565
42.073
39.435
37.058
35.127
33.696
32.782
32.424
32.694
33.606
35.031
36.662
38.095
38.997
39.228
38.879
38.153
37.258
36.339
35.491
34.769
34.196
33.771
33.475
33.285
33.165
33.089
33.03
32.955
32.878
32.901
33.345
34.737
37.437
41.061
44.435
46.4
46.52
45.101
42.78
40.18
37.734
35.673
34.114
33.138
32.811
33.169
34.188
35.698
37.362
38.764
39.578
39.704
39.272
38.501
37.591
36.675
35.828
35.107
34.546
34.144
33.87
33.688
33.569
33.479
33.375
33.253
33.178
33.377
34.294
36.406
39.672
43.194
45.739
46.561
45.7
43.694
41.177
38.649
36.42
34.647
33.424
32.844
32.969
33.796
35.195
36.866
38.401
39.428
39.764
39.47
38.765
37.871
36.948
36.086
35.336
34.725
34.263
33.936
33.713
33.555
33.427
33.303
33.179
33.105
33.27
34.103
36.108
39.32
42.894
45.582
46.584
45.874
43.944
41.433
38.876
36.609
34.802
33.559
32.952
33.04
33.826
35.195
36.848
38.376
39.405
39.755
39.475
38.774
37.882
36.963
36.116
35.396
34.826
34.398
34.089
33.871
33.719
33.599
33.474
33.336
33.242
33.374
34.133
35.998
39.036
42.48
45.124
46.154
45.507
43.652
41.198
38.665
36.4
34.58
33.312
32.688
32.768
33.552
34.917
36.571
38.101
39.14
39.508
39.259
38.597
37.726
36.807
35.948
35.212
34.622
34.176
33.863
33.652
33.509
33.4
33.304
33.206
33.131
33.23
33.867
35.536
38.407
41.839
44.633
45.884
45.434
43.705
41.295
38.737
36.39
34.475
33.132
32.465
32.526
33.3
34.665
36.341
37.923
39.023
39.439
39.215
38.553
37.686
36.784
35.945
35.216
34.619
34.158
33.819
33.578
33.406
33.278
33.164
33.05
32.976
33.091
33.755
35.452
38.316
41.691
44.404
45.573
45.054
43.28
40.86
38.311
35.984
34.089
32.773
32.143
32.258
33.085
34.48
36.151
37.697
38.749
39.119
38.867
38.206
37.361
36.489
35.68
34.977
34.406
33.978
33.67
33.455
33.303
33.162
33.003
32.871
32.882
33.304
34.576
37.005
40.246
43.254
44.981
45.014
43.608
41.332
38.756
36.299
34.233
32.718
31.858
31.727
32.349
33.646
35.367
37.102
38.42
39.052
38.977
38.382
37.527
36.601
35.715
34.928
34.273
33.76
33.382
33.117
32.941
32.816
32.702
32.612
32.646
33.085
34.392
36.873
40.162
43.185
44.888
44.877
43.452
41.208
38.687
36.27
34.215
32.708
31.861
31.722
32.296
33.5
35.098
36.714
37.956
38.576
38.564
38.071
37.318
36.485
35.69
34.988
34.395
33.91
33.527
33.232
33.009
32.827
32.658
32.513
32.499
32.906
34.209
36.723
40.097
43.234
45.035
45.077
43.631
41.303
38.691
36.225
34.168
32.68
31.842
31.69
32.235
33.427
35.052
36.728
38.035
38.7
38.697
38.199
37.431
36.58
35.76
35.026
34.4
33.897
33.522
33.256
33.066
32.905
32.752
32.643
32.726
33.35
35.008
37.88
41.334
44.159
45.413
44.93
43.156
40.714
38.128
35.763
33.846
32.525
31.892
31.992
32.809
34.212
35.917
37.524
38.645
39.081
38.884
38.26
37.433
36.566
35.749
35.028
34.439
33.991
33.664
33.429
33.25
33.085
32.924
32.863
33.171
34.324
36.717
40.082
43.348
45.355
45.599
44.309
42.078
39.498
36.994
34.844
33.236
32.295
32.091
32.64
33.865
35.532
37.252
38.601
39.285
39.269
38.731
37.918
37.022
36.165
35.409
34.776
34.264
33.868
33.578
33.361
33.18
33.012
32.919
33.151
34.191
36.466
39.783
43.117
45.276
45.675
44.501
42.329
39.753
37.22
35.021
33.345
32.334
32.073
32.576
33.755
35.385
37.092
38.45
39.159
39.176
38.673
37.898
37.041
36.207
35.45
34.795
34.262
33.861
33.572
33.353
33.168
33.017
32.996
33.407
34.763
37.411
40.907
44.063
45.793
45.739
44.234
41.894
39.291
36.839
34.798
33.344
32.619
32.704
33.57
35.049
36.81
38.412
39.469
39.801
39.491
38.783
37.915
37.036
36.221
35.508
34.923
34.48
34.169
33.947
33.761
33.574
33.407
33.398
33.907
35.443
38.209
41.571
44.334
45.58
45.137
43.415
41.006
38.434
36.072
34.163
32.882
32.349
32.608
33.603
35.143
36.885
38.408
39.36
39.611
39.268
38.564
37.715
36.849
36.041
35.336
34.751
34.29
33.935
33.655
33.428
33.246
33.148
33.297
34.09
36.006
39.051
42.388
44.825
45.629
44.814
42.868
40.378
37.824
35.538
33.754
32.648
32.318
32.771
33.912
35.511
37.199
38.558
39.29
39.33
38.839
38.06
37.204
36.393
35.68
35.077
34.591
34.216
33.932
33.712
33.522
33.337
33.209
33.334
34.148
36.157
39.329
42.735
45.139
45.827
44.859
42.762
40.156
37.54
35.244
33.485
32.411
32.112
32.603
33.792
35.444
37.179
38.558
39.28
39.3
38.789
37.995
37.125
36.298
35.566
34.955
34.464
34.074
33.774
33.536
33.322
33.135
33.071
33.387
34.539
36.887
40.123
43.186
44.979
45.067
43.701
41.449
38.86
36.347
34.212
32.677
31.891
31.913
32.713
34.145
35.905
37.573
38.753
39.234
39.062
38.464
37.681
36.876
36.119
35.432
34.836
34.34
33.941
33.629
33.382
33.168
32.993
32.973
33.419
34.827
37.477
40.856
43.778
45.234
44.965
43.333
40.92
38.272
35.795
33.777
32.424
31.864
32.135
33.175
34.782
36.603
38.205
39.225
39.515
39.183
38.466
37.595
36.724
35.927
35.239
34.673
34.229
33.895
33.637
33.422
33.242
33.145
33.288
34.046
35.864
38.76
41.951
44.29
45.056
44.259
42.362
39.908
37.359
35.072
33.322
32.298
32.101
32.713
33.987
35.627
37.223
38.381
38.877
38.744
38.195
37.452
36.651
35.854
35.096
34.413
33.845
33.397
33.039
32.723
32.409
32.111
31.918
32.033
32.823
34.676
37.586
40.807
43.2
44.005
43.173
41.149
38.527
35.848
33.531
31.827
30.789
30.325
30.317
30.722
31.522
32.602
33.711
34.566
34.975
34.905
34.454
33.782
33.043
32.34
31.721
31.203
30.793
30.48
30.238
30.044
29.891
29.78
29.73
29.85
30.532
32.303
35.21
38.548
41.182
42.233
41.552
39.631
37.223
34.998
33.333
32.281
31.689
31.376
31.247
31.326
31.709
32.419
33.314
34.136
34.669
34.832
34.678
34.325
33.89
33.445
33.009
32.584
32.184
31.826
31.522
31.282
31.112
31.046
31.224
32.007
33.73
36.25
38.873
40.723
41.233
40.376
38.581
36.495
34.704
33.493
32.821
32.492
32.339
32.313
32.479
32.905
33.536
34.208
34.729
34.978
34.947
34.701
34.317
33.869
33.414
32.989
32.609
32.277
32.026
32.005
32.678
34.654
38.011
41.904
44.943
46.117
45.337
43.225
40.583
38.045
35.99
34.555
33.678
33.201
33.001
33.103
33.605
34.534
35.724
36.841
37.572
37.763
37.453
36.809
36.007
35.184
34.413
33.719
33.103
32.605
32.435
33.244
35.892
40.479
45.624
49.362
50.579
49.457
46.904
43.851
40.906
38.354
36.306
34.8
33.849
33.495
33.806
34.803
36.329
38.018
39.414
40.167
40.171
39.559
38.585
37.487
36.413
35.438
34.589
33.873
33.279
32.83
32.775
33.892
37.16
42.453
48.013
51.803
52.905
51.715
49.246
46.4
43.7
41.355
39.406
37.851
36.772
36.3
36.512
37.366
38.664
40.056
41.153
41.661
41.5
40.788
39.741
38.565
37.417
36.396
35.54
34.855
34.316
33.883
33.534
33.332
33.644
35.311
39.033
44.165
48.882
51.588
51.861
50.331
47.961
45.493
43.305
41.494
39.991
38.725
37.758
37.231
37.266
37.863
38.844
39.899
40.695
40.993
40.731
40.008
39.004
37.893
36.813
35.859
35.088
34.512
34.114
33.859
33.699
33.582
33.473
33.358
33.264
33.412
34.473
37.289
41.75
46.416
49.591
50.481
49.416
47.273
44.888
42.767
41.074
39.738
38.595
37.584
36.827
36.518
36.768
37.514
38.497
39.355
39.787
39.669
39.062
38.125
37.018
35.876
34.804
33.873
33.108
32.508
32.059
31.745
31.541
31.416
31.33
31.244
31.144
31.033
30.908
30.801
30.984
32.185
35.278
40.076
44.944
48.065
48.688
47.273
44.806
42.149
39.789
37.883
36.379
35.17
34.253
33.766
33.891
34.681
36.007
37.539
38.82
39.479
39.388
38.672
37.592
36.394
35.244
34.249
33.46
32.887
32.503
32.261
32.116
32.033
31.976
31.924
31.875
31.857
32.038
32.935
35.333
39.361
43.836
47.078
48.127
47.136
44.902
42.248
39.696
37.453
35.54
33.952
32.777
32.192
32.366
33.334
34.926
36.745
38.281
39.127
39.134
38.43
37.287
35.979
34.719
33.639
32.8
32.198
31.797
31.537
31.365
31.249
31.16
31.106
31.201
31.885
33.999
37.991
42.886
46.857
48.61
48.083
46.079
43.528
41.06
38.954
37.237
35.835
34.745
34.103
34.078
34.727
35.914
37.326
38.552
39.255
39.305
38.785
37.891
36.832
35.762
34.787
33.986
33.39
32.997
32.773
32.662
32.602
32.564
32.528
32.476
32.437
32.606
33.599
36.275
40.601
45.184
48.332
49.245
48.256
46.248
44.027
42.058
40.494
39.27
38.221
37.253
36.478
36.122
36.354
37.145
38.223
39.191
39.722
39.691
39.171
38.319
37.302
36.257
35.28
34.439
33.768
33.282
32.973
32.814
32.772
32.799
32.841
32.859
32.833
32.758
32.678
32.814
33.769
36.303
40.301
44.464
47.289
48.076
47.12
45.224
43.127
41.26
39.766
38.573
37.513
36.513
35.709
35.34
35.546
36.26
37.232
38.119
38.63
38.629
38.152
37.329
36.318
35.258
34.254
33.368
32.628
32.025
31.551
31.202
30.979
30.87
30.857
30.906
30.974
31.018
30.991
30.871
30.73
30.859
31.958
34.886
39.526
44.347
47.576
48.418
47.263
45.037
42.563
40.308
38.442
36.943
35.718
34.758
34.198
34.226
34.945
36.27
37.869
39.241
39.963
39.897
39.181
38.076
36.829
35.625
34.572
33.721
33.084
32.636
32.327
32.114
31.97
31.885
31.836
31.8
31.757
31.724
31.886
32.811
35.309
39.465
44.024
47.297
48.368
47.436
45.32
42.816
40.407
38.277
36.436
34.854
33.591
32.824
32.752
33.45
34.793
36.452
37.971
38.917
39.064
38.479
37.406
36.13
34.877
33.781
32.898
32.239
31.778
31.467
31.252
31.1
30.992
30.917
30.861
30.853
31.141
32.383
35.406
40.115
44.999
48.286
49.173
48.024
45.738
43.13
40.682
38.584
36.845
35.416
34.325
33.712
33.724
34.39
35.564
36.947
38.155
38.859
38.918
38.397
37.487
36.402
35.32
34.356
33.553
32.908
32.421
32.08
31.858
31.716
31.625
31.564
31.512
31.459
31.448
31.749
33.093
36.345
41.289
46.291
49.577
50.421
49.253
47.015
44.535
42.289
40.44
38.942
37.665
36.57
35.77
35.451
35.734
36.565
37.708
38.819
39.557
39.726
39.318
38.474
37.388
36.244
35.17
34.238
33.477
32.881
32.443
32.143
31.958
31.863
31.843
31.872
31.913
31.929
31.897
31.817
31.714
31.779
32.603
35.056
39.346
44.261
48.006
49.506
48.852
46.841
44.337
41.921
39.853
38.156
36.744
35.581
34.761
34.438
34.689
35.451
36.524
37.612
38.413
38.72
38.482
37.793
36.812
35.701
34.604
33.61
32.766
32.088
31.562
31.164
30.873
30.68
30.584
30.571
30.604
30.642
30.649
30.596
30.469
30.288
30.179
30.558
32.212
35.812
40.888
45.699
48.549
48.889
47.281
44.687
41.901
39.37
37.248
35.528
34.181
33.233
32.785
32.96
33.794
35.14
36.668
37.983
38.77
38.916
38.497
37.689
36.691
35.655
34.675
33.8
33.06
32.467
32.019
31.707
31.526
31.452
31.441
31.454
31.47
31.469
31.453
31.541
32.197
34.194
37.98
42.78
46.858
48.85
48.519
46.521
43.75
40.899
38.329
36.158
34.413
33.126
32.334
32.103
32.5
33.5
34.905
36.363
37.479
37.981
37.818
37.131
36.139
35.04
33.979
33.057
32.313
31.743
31.334
31.057
30.872
30.736
30.633
30.55
30.483
30.482
30.834
32.243
35.439
40.28
45.272
48.62
49.48
48.184
45.65
42.743
40.018
37.708
35.834
34.37
33.337
32.795
32.816
33.417
34.497
35.789
36.94
37.663
37.836
37.515
36.852
35.998
35.069
34.159
33.343
32.67
32.159
31.805
31.572
31.417
31.311
31.238
31.184
31.146
31.155
31.48
32.836
36.057
41.064
46.331
49.986
51.116
50.023
47.635
44.848
42.226
39.993
38.142
36.615
35.418
34.651
34.441
34.841
35.762
36.968
38.131
38.949
39.241
38.992
38.321
37.397
36.37
35.352
34.43
33.651
33.029
32.555
32.206
31.966
31.821
31.758
31.762
31.801
31.829
31.815
31.752
31.659
31.663
32.219
34.131
37.931
42.932
47.379
49.775
49.767
47.984
45.354
42.629
40.207
38.203
36.578
35.295
34.397
33.986
34.134
34.822
35.889
37.055
38.012
38.531
38.528
38.062
37.274
36.311
35.292
34.318
33.457
32.748
32.192
31.765
31.434
31.184
31.01
30.911
30.877
30.877
30.88
30.866
30.819
30.733
30.656
30.85
31.951
34.655
38.966
43.689
47.111
48.224
47.16
44.754
41.916
39.265
37.07
35.377
34.134
33.272
32.754
32.606
32.917
33.73
34.911
36.137
37.048
37.425
37.261
36.698
35.917
35.066
34.238
33.493
32.868
32.382
32.026
31.774
31.599
31.486
31.421
31.39
31.384
31.398
31.417
31.42
31.439
31.735
32.968
35.82
40.195
44.805
47.974
48.816
47.553
45.04
42.167
39.518
37.341
35.676
34.47
33.65
33.166
33.04
33.373
34.2
35.353
36.489
37.275
37.53
37.264
36.604
35.715
34.761
33.885
33.162
32.594
32.153
31.814
31.561
31.379
31.249
31.158
31.097
31.065
31.117
31.596
33.257
36.696
41.527
46.207
49.104
49.564
48.024
45.403
42.532
39.925
37.799
36.175
34.99
34.176
33.701
33.604
33.964
34.776
35.839
36.834
37.478
37.639
37.341
36.715
35.915
35.077
34.287
33.593
33.018
32.572
32.239
31.996
31.813
31.675
31.572
31.493
31.43
31.424
31.757
33.172
36.413
41.318
46.415
49.906
50.918
49.748
47.305
44.471
41.819
39.589
37.8
36.39
35.327
34.64
34.408
34.698
35.474
36.54
37.606
38.392
38.72
38.558
37.994
37.161
36.204
35.24
34.356
33.612
33.029
32.593
32.274
32.049
31.905
31.83
31.795
31.773
31.746
31.703
31.641
31.592
31.788
32.861
35.534
39.861
44.696
48.329
49.705
48.891
46.66
43.896
41.235
38.985
37.196
35.809
34.769
34.061
33.702
33.727
34.152
34.896
35.749
36.456
36.823
36.771
36.348
35.672
34.867
34.034
33.263
32.608
32.088
31.7
31.415
31.206
31.06
30.962
30.896
30.848
30.811
30.787
30.778
30.78
30.804
30.925
31.58
33.567
37.298
42.114
46.385
48.652
48.53
46.622
43.888
41.136
38.824
37.078
35.82
34.915
34.276
33.886
33.82
34.197
35.034
36.11
37.077
37.65
37.712
37.323
36.651
35.857
35.057
34.325
33.697
33.18
32.774
32.47
32.253
32.092
31.964
31.863
31.781
31.7
31.619
31.591
31.895
33.175
35.974
40.065
44.25
47.044
47.666
46.342
43.892
41.168
38.746
36.876
35.549
34.633
33.986
33.543
33.325
33.429
33.934
34.755
35.633
36.252
36.42
36.142
35.561
34.834
34.086
33.406
32.841
32.4
32.078
31.847
31.665
31.516
31.394
31.301
31.249
31.221
31.214
31.383
32.319
34.812
39.032
43.967
47.887
49.567
48.921
46.7
43.859
41.126
38.873
37.172
35.93
35.029
34.395
34.015
33.962
34.327
35.086
36.044
36.902
37.404
37.441
37.059
36.4
35.613
34.812
34.072
33.443
32.95
32.583
32.309
32.101
31.945
31.83
31.743
31.674
31.619
31.607
31.853
33.003
35.78
40.212
45.153
48.876
50.308
49.516
47.294
44.54
41.9
39.682
37.934
36.585
35.573
34.884
34.545
34.619
35.136
35.989
36.935
37.691
38.05
37.958
37.49
36.78
35.956
35.114
34.337
33.672
33.129
32.699
32.373
32.136
31.967
31.849
31.769
31.711
31.656
31.587
31.5
31.479
31.866
33.324
36.326
40.553
44.762
47.498
48.05
46.683
44.213
41.477
39.038
37.124
35.72
34.708
33.971
33.443
33.118
33.046
33.305
33.895
34.667
35.368
35.772
35.785
35.462
34.922
34.294
33.676
33.126
32.668
32.3
32.0
31.758
31.577
31.443
31.343
31.267
31.217
31.187
31.159
31.136
31.151
31.377
32.427
35.015
39.15
43.769
47.259
48.558
47.684
45.417
42.692
40.19
38.217
36.798
35.809
35.093
34.553
34.185
34.085
34.403
35.18
36.214
37.143
37.651
37.61
37.096
36.295
35.411
34.59
33.91
33.386
32.991
32.681
32.429
32.229
32.07
31.937
31.823
31.737
31.698
31.88
32.869
35.31
39.17
43.446
46.651
47.788
46.859
44.589
41.882
39.42
37.512
36.166
35.237
34.562
34.05
33.699
33.568
33.75
34.259
34.957
35.579
35.904
35.852
35.484
34.925
34.307
33.73
33.238
32.832
32.499
32.234
32.032
31.877
31.752
31.645
31.558
31.494
31.468
31.595
32.404
34.697
38.724
43.626
47.755
49.796
49.508
47.537
44.806
42.081
39.793
38.055
36.784
35.853
35.174
34.711
34.502
34.643
35.18
35.99
36.812
37.367
37.488
37.183
36.575
35.815
35.031
34.311
33.707
33.227
32.856
32.572
32.353
32.175
32.023
31.893
31.784
31.696
31.637
31.753
32.61
34.943
38.898
43.58
47.424
49.226
48.819
46.856
44.227
41.639
39.464
37.778
36.509
35.557
34.861
34.408
34.23
34.384
34.875
35.589
36.301
36.779
36.888
36.632
36.092
35.391
34.654
33.966
33.381
32.914
32.545
32.25
32.013
31.826
31.681
31.567
31.476
31.399
31.333
31.28
31.265
31.462
32.468
34.944
38.838
43.155
46.437
47.704
46.932
44.803
42.192
39.778
37.884
36.537
35.604
34.93
34.406
34.011
33.798
33.86
34.249
34.873
35.507
35.918
35.985
35.74
35.292
34.755
34.2
33.682
33.239
32.876
32.578
32.334
32.138
31.982
31.855
31.757
31.689
31.641
31.604
31.575
31.611
32.047
33.598
36.654
40.721
44.559
46.915
47.259
45.909
43.647
41.248
39.203
37.673
36.588
35.794
35.176
34.702
34.407
34.379
34.708
35.36
36.13
36.728
36.968
36.819
36.371
35.769
35.137
34.55
34.042
33.62
33.277
33.005
32.785
32.599
32.442
32.308
32.19
32.09
32.027
32.117
32.844
34.855
38.193
42.038
45.134
46.538
46.102
44.347
42.036
39.816
38.039
36.767
35.879
35.216
34.686
34.279
34.041
34.038
34.32
34.837
35.4
35.785
35.858
35.613
35.146
34.591
34.05
33.575
33.183
32.867
32.611
32.402
32.227
32.083
31.971
31.879
31.796
31.732
31.714
31.935
33.042
35.667
39.661
43.958
47.14
48.314
47.528
45.478
42.995
40.688
38.843
37.488
36.504
35.758
35.178
34.762
34.566
34.668
35.077
35.675
36.248
36.586
36.589
36.287
35.786
35.206
34.625
34.093
33.638
33.264
32.967
32.731
32.532
32.362
32.217
32.096
31.999
31.921
31.899
32.194
33.478
36.294
40.39
44.651
47.703
48.744
47.89
45.846
43.398
41.107
39.231
37.791
36.708
35.892
35.296
34.913
34.78
34.962
35.46
36.138
36.767
37.129
37.133
36.815
36.272
35.622
34.967
34.374
33.87
33.454
33.108
32.827
32.607
32.439
32.294
32.169
32.062
31.971
31.893
31.836
31.897
32.491
34.26
37.417
41.366
44.913
46.951
47.096
45.73
43.574
41.284
39.279
37.718
36.566
35.723
35.096
34.64
34.365
34.326
34.563
35.036
35.59
36.021
36.184
36.049
35.676
35.163
34.603
34.066
33.599
33.22
32.919
32.675
32.47
32.287
32.125
31.993
31.891
31.814
31.758
31.72
31.696
31.715
32.02
33.21
35.696
39.161
42.62
44.971
45.629
44.734
42.874
40.729
38.799
37.308
36.253
35.509
34.948
34.499
34.161
33.981
34.016
34.274
34.666
35.04
35.239
35.192
34.926
34.522
34.065
33.627
33.244
32.924
32.663
32.451
32.278
32.129
31.999
31.896
31.82
31.762
31.723
31.712
31.837
32.557
34.43
37.378
40.565
42.926
43.81
43.229
41.681
39.814
38.139
36.878
36.005
35.38
34.883
34.468
34.141
33.922
33.836
33.9
34.099
34.361
34.574
34.656
34.583
34.388
34.127
33.858
33.61
33.389
33.193
33.022
32.876
32.748
32.626
32.512
32.418
32.355
32.383
32.799
34.151
36.595
39.529
41.967
43.16
42.957
41.724
40.045
38.434
37.177
36.298
35.686
35.217
34.814
34.472
34.218
34.086
34.095
34.23
34.435
34.622
34.711
34.66
34.483
34.233
33.973
33.737
33.529
33.345
33.184
33.046
32.93
32.828
32.734
32.655
32.644
32.992
34.362
37.104
40.694
43.996
45.968
46.214
45.041
43.102
41.042
39.293
37.992
37.066
36.384
35.838
35.394
35.062
34.881
34.899
35.135
35.524
35.916
36.15
36.132
35.863
35.439
34.986
34.567
34.202
33.89
33.631
33.411
33.219
33.05
32.903
32.788
32.738
32.985
34.13
36.607
40.08
43.522
45.84
46.484
45.617
43.835
41.774
39.897
38.405
37.3
36.496
35.897
35.439
35.115
34.955
35.014
35.296
35.719
36.134
36.39
36.397
36.159
35.747
35.256
34.767
34.333
33.969
33.671
33.424
33.214
33.04
32.896
32.77
32.671
32.693
33.211
34.825
37.695
41.18
44.183
45.805
45.797
44.525
42.623
40.661
38.989
37.715
36.784
36.09
35.549
35.134
34.863
34.76
34.846
35.095
35.409
35.655
35.728
35.596
35.296
34.889
34.446
34.035
33.687
33.408
33.189
33.012
32.858
32.716
32.592
32.492
32.416
32.378
32.531
33.397
35.497
38.661
41.979
44.361
45.179
44.5
42.867
40.934
39.189
37.848
36.898
36.206
35.662
35.207
34.84
34.603
34.54
34.664
34.936
35.249
35.466
35.511
35.378
35.113
34.779
34.438
34.121
33.842
33.602
33.394
33.21
33.052
32.92
32.808
32.715
32.69
32.995
34.185
36.558
39.675
42.552
44.279
44.516
43.529
41.871
40.078
38.527
37.369
36.56
35.976
35.517
35.153
34.907
34.843
35.016
35.397
35.849
36.184
36.269
36.09
35.719
35.264
34.818
34.428
34.105
33.839
33.613
33.418
33.249
33.105
32.985
32.903
32.988
33.692
35.562
38.56
41.888
44.464
45.57
45.149
43.655
41.719
39.862
38.382
37.322
36.562
35.972
35.504
35.166
34.996
35.039
35.309
35.728
36.132
36.363
36.342
36.085
35.671
35.197
34.75
34.363
34.036
33.763
33.534
33.337
33.164
33.016
32.898
32.832
33.014
34.046
36.492
40.174
44.095
47.005
48.143
47.55
45.817
43.642
41.544
39.794
38.45
37.453
36.72
36.189
35.858
35.784
36.019
36.531
37.152
37.645
37.84
37.703
37.293
36.712
36.066
35.443
34.902
34.465
34.114
33.82
33.568
33.35
33.159
32.992
32.853
32.784
33.037
34.195
36.703
40.308
44.011
46.643
47.551
46.843
45.117
43.037
41.07
39.411
38.079
37.039
36.263
35.738
35.468
35.477
35.77
36.271
36.823
37.235
37.37
37.201
36.788
36.235
35.643
35.069
34.545
34.09
33.71
33.404
33.159
32.962
32.797
32.65
32.524
32.416
32.336
32.414
33.078
34.914
38.031
41.747
44.911
46.609
46.612
45.305
43.324
41.248
39.427
37.971
36.855
36.03
35.448
35.089
34.972
35.137
35.562
36.13
36.652
36.951
36.944
36.656
36.177
35.606
35.021
34.48
34.012
33.617
33.291
33.027
32.817
32.652
32.52
32.41
32.318
32.24
32.172
32.146
32.343
33.257
35.385
38.627
42.136
44.803
45.913
45.436
43.859
41.821
39.835
38.19
36.956
36.068
35.422
34.934
34.576
34.381
34.429
34.757
35.266
35.763
36.062
36.075
35.821
35.39
34.894
34.408
33.967
33.588
33.269
33.004
32.794
32.629
32.493
32.38
32.289
32.226
32.177
32.125
32.076
32.084
32.422
33.685
36.283
39.855
43.332
45.601
46.142
45.178
43.341
41.289
39.474
38.084
37.082
36.339
35.759
35.304
35.001
34.928
35.154
35.652
36.256
36.73
36.9
36.73
36.302
35.744
35.164
34.634
34.187
33.824
33.534
33.3
33.109
32.957
32.827
32.708
32.606
32.526
32.476
32.56
33.193
34.927
37.809
41.133
43.826
45.1
44.818
43.404
41.491
39.628
38.118
37.008
36.203
35.591
35.103
34.736
34.518
34.492
34.7
35.089
35.498
35.761
35.795
35.605
35.258
34.84
34.416
34.03
33.702
33.433
33.207
33.01
32.847
32.716
32.604
32.512
32.436
32.372
32.325
32.378
32.957
34.796
38.135
42.252
45.827
47.768
47.794
46.371
44.252
42.08
40.226
38.796
37.738
36.94
36.316
35.841
35.536
35.46
35.669
36.13
36.691
37.133
37.285
37.105
36.669
36.098
35.498
34.936
34.455
34.062
33.743
33.478
33.256
33.065
32.9
32.758
32.642
32.548
32.473
32.411
32.414
32.774
34.123
36.883
40.677
44.391
46.85
47.494
46.551
44.683
42.559
40.625
39.069
37.887
36.994
36.313
35.797
35.443
35.299
35.439
35.847
36.384
36.851
37.072
36.978
36.618
36.093
35.501
34.925
34.419
33.999
33.655
33.373
33.134
32.926
32.758
32.631
32.532
32.446
32.364
32.288
32.223
32.177
32.253
32.877
34.654
37.697
41.29
44.271
45.752
45.556
44.115
42.102
40.11
38.477
37.274
36.412
35.763
35.232
34.787
34.456
34.287
34.325
34.571
34.944
35.302
35.507
35.488
35.255
34.885
34.479
34.11
33.8
33.539
33.312
33.103
32.912
32.752
32.626
32.52
32.425
32.342
32.277
32.22
32.171
32.146
32.27
33.011
34.963
38.081
41.502
44.09
45.129
44.63
43.113
41.229
39.48
38.112
37.132
36.419
35.849
35.367
34.98
34.729
34.672
34.865
35.281
35.789
36.189
36.318
36.144
35.739
35.221
34.701
34.254
33.904
33.634
33.416
33.226
33.049
32.894
32.768
32.666
32.583
32.537
32.638
33.315
35.12
38.042
41.296
43.793
44.805
44.289
42.731
40.8
39.039
37.699
36.762
36.087
35.535
35.046
34.636
34.346
34.22
34.285
34.522
34.838
35.105
35.208
35.108
34.842
34.485
34.113
33.782
33.514
33.294
33.097
32.916
32.756
32.626
32.524
32.442
32.37
32.325
32.446
33.297
35.598
39.366
43.613
46.934
48.393
47.948
46.213
43.971
41.833
40.094
38.793
37.832
37.086
36.48
36.002
35.684
35.592
35.771
36.188
36.696
37.09
37.216
37.036
36.618
36.07
35.495
34.967
34.52
34.155
33.858
33.618
33.413
33.236
33.084
32.953
32.84
32.757
32.808
33.442
35.348
38.701
42.745
46.186
48.007
47.978
46.574
44.521
42.42
40.606
39.174
38.072
37.221
36.562
36.071
35.764
35.685
35.875
36.302
36.821
37.239
37.404
37.268
36.886
36.359
35.783
35.231
34.745
34.339
34.008
33.737
33.513
33.323
33.158
33.01
32.879
32.766
32.7
32.864
33.817
36.128
39.691
43.551
46.451
47.599
47.02
45.304
43.16
41.122
39.442
38.142
37.149
36.383
35.797
35.372
35.113
35.047
35.198
35.53
35.914
36.191
36.254
36.087
35.737
35.28
34.8
34.366
33.997
33.686
33.422
33.199
33.014
32.861
32.735
32.626
32.525
32.433
32.358
32.359
32.784
34.368
37.525
41.709
45.583
47.888
48.187
46.878
44.733
42.452
40.465
38.915
37.753
36.865
36.17
35.642
35.306
35.244
35.558
36.237
37.086
37.792
38.103
37.949
37.439
36.742
36.003
35.317
34.736
34.277
33.925
33.643
33.393
33.161
32.958
32.789
32.661
32.626
32.984
34.384
37.239
41.099
44.737
46.934
47.206
45.885
43.69
41.321
39.249
37.667
36.54
35.733
35.116
34.632
34.298
34.18
34.338
34.766
35.34
35.851
36.114
36.052
35.701
35.177
34.598
34.056
33.606
33.258
32.985
32.757
32.554
32.376
32.232
32.117
32.027
31.959
31.986
32.561
34.543
38.339
43.182
47.44
49.739
49.766
48.112
45.658
43.112
40.875
39.095
37.751
36.752
36.003
35.447
35.089
34.998
35.255
35.837
36.573
37.189
37.463
37.34
36.9
36.272
35.579
34.911
34.324
33.841
33.453
33.146
32.907
32.721
32.563
32.421
32.289
32.167
32.081
32.229
33.258
35.901
40.131
44.798
48.287
49.629
48.906
46.874
44.367
41.968
39.951
38.361
37.133
36.197
35.51
35.061
34.882
35.028
35.508
36.217
36.938
37.43
37.555
37.313
36.792
36.117
35.4
34.718
34.132
33.66
33.286
32.983
32.732
32.526
32.357
32.214
32.094
31.993
31.92
31.92
32.29
33.729
36.784
41.122
45.426
48.235
48.892
47.703
45.459
42.932
40.623
38.748
37.317
36.254
35.48
34.939
34.626
34.584
34.863
35.436
36.161
36.815
37.197
37.213
36.891
36.342
35.695
35.047
34.46
33.953
33.52
33.163
32.872
32.641
32.465
32.33
32.219
32.118
32.024
31.939
31.868
31.886
32.362
33.975
37.089
41.187
44.987
47.246
47.5
46.123
43.866
41.442
39.307
37.63
36.396
35.514
34.874
34.413
34.132
34.082
34.33
34.87
35.555
36.155
36.479
36.454
36.132
35.622
35.03
34.433
33.884
33.419
33.048
32.751
32.508
32.304
32.143
32.027
31.949
31.887
31.831
31.782
31.742
31.735
31.93
32.878
35.204
38.855
42.854
45.865
47.025
46.338
44.416
42.035
39.803
38.026
36.751
35.851
35.18
34.646
34.232
33.967
33.906
34.097
34.508
35.002
35.392
35.537
35.402
35.047
34.574
34.08
33.624
33.226
32.895
32.626
32.404
32.216
32.06
31.936
31.833
31.743
31.671
31.614
31.564
31.53
31.577
31.996
33.471
36.415
40.302
43.865
45.922
46.055
44.65
42.484
40.291
38.512
37.245
36.372
35.717
35.166
34.694
34.331
34.115
34.08
34.253
34.597
34.995
35.294
35.379
35.235
34.92
34.532
34.151
33.821
33.541
33.292
33.075
32.898
32.753
32.624
32.5
32.397
32.316
32.252
32.214
32.276
32.784
34.356
37.194
40.64
43.527
44.937
44.672
43.176
41.158
39.244
37.765
36.74
36.026
35.472
34.99
34.568
34.247
34.065
34.051
34.216
34.514
34.831
35.041
35.062
34.894
34.606
34.275
33.943
33.645
33.406
33.218
33.056
32.911
32.778
32.654
32.54
32.44
32.371
32.426
33.048
34.919
38.134
41.853
44.798
46.088
45.643
43.997
41.885
39.912
38.385
37.316
36.552
35.943
35.421
34.987
34.678
34.531
34.573
34.805
35.156
35.491
35.672
35.636
35.406
35.057
34.671
34.304
33.982
33.714
33.495
33.307
33.134
32.969
32.823
32.707
32.63
32.655
33.176
34.97
38.371
42.671
46.449
48.506
48.527
46.995
44.708
42.359
40.364
38.85
37.75
36.928
36.284
35.786
35.432
35.266
35.352
35.703
36.216
36.706
36.99
36.982
36.696
36.217
35.654
35.095
34.602
34.202
33.881
33.617
33.394
33.205
33.036
32.881
32.748
32.646
32.618
32.975
34.408
37.361
41.392
45.26
47.704
48.19
47.021
44.925
42.61
40.539
38.907
37.704
36.823
36.158
35.643
35.266
35.051
35.052
35.282
35.665
36.05
36.271
36.235
35.957
35.519
35.012
34.514
34.071
33.701
33.396
33.137
32.913
32.722
32.561
32.433
32.336
32.257
32.187
32.138
32.23
32.967
35.017
38.428
42.342
45.486
46.952
46.622
45.01
42.847
40.738
39.018
37.755
36.852
36.169
35.627
35.208
34.938
34.871
35.061
35.477
35.972
36.352
36.478
36.325
35.957
35.483
34.999
34.556
34.169
33.839
33.563
33.333
33.149
33.005
32.89
32.788
32.687
32.589
32.525
32.619
33.313
35.183
38.241
41.69
44.39
45.558
45.131
43.595
41.606
39.711
38.203
37.116
36.337
35.735
35.246
34.86
34.616
34.572
34.778
35.192
35.66
35.985
36.048
35.833
35.426
34.948
34.492
34.098
33.767
33.489
33.256
33.055
32.872
32.71
32.569
32.452
32.369
32.331
32.435
33.148
35.129
38.458
42.313
45.425
46.882
46.561
44.962
42.803
40.696
38.987
37.746
36.861
36.185
35.632
35.199
34.913
34.82
34.973
35.359
35.846
36.231
36.355
36.184
35.791
35.294
34.799
34.358
33.981
33.678
33.435
33.225
33.038
32.877
32.739
32.619
32.522
32.452
32.435
32.7
33.924
36.683
40.702
44.819
47.689
48.602
47.72
45.729
43.375
41.208
39.488
38.225
37.292
36.57
36.001
35.585
35.364
35.407
35.734
36.261
36.801
37.145
37.177
36.906
36.432
35.866
35.288
34.755
34.297
33.922
33.616
33.363
33.149
32.973
32.823
32.695
32.58
32.469
32.372
32.364
32.774
34.257
37.183
41.078
44.757
47.057
47.507
46.388
44.372
42.136
40.135
38.565
37.414
36.568
35.914
35.397
35.014
34.796
34.788
35.019
35.424
35.854
36.142
36.192
36.002
35.635
35.175
34.702
34.268
33.89
33.572
33.307
33.083
32.893
32.729
32.596
32.497
32.421
32.353
32.285
32.233
32.28
32.806
34.469
37.493
41.231
44.479
46.25
46.287
44.979
42.987
40.938
39.222
37.948
37.031
36.335
35.771
35.314
34.993
34.87
35.003
35.391
35.908
36.358
36.564
36.46
36.097
35.591
35.06
34.577
34.173
33.845
33.581
33.362
33.17
32.996
32.834
32.688
32.571
32.485
32.424
32.435
32.809
34.125
36.664
39.936
42.905
44.639
44.81
43.701
41.903
40.007
38.402
37.214
36.375
35.751
35.24
34.819
34.5
34.311
34.3
34.482
34.798
35.122
35.316
35.295
35.068
34.719
34.332
33.97
33.658
33.396
33.183
33.011
32.856
32.71
32.578
32.466
32.376
32.301
32.249
32.245
32.51
33.708
36.404
40.297
44.227
46.902
47.677
46.758
44.834
42.629
40.649
39.111
37.992
37.165
36.508
35.968
35.549
35.281
35.208
35.369
35.721
36.13
36.428
36.488
36.278
35.865
35.359
34.861
34.428
34.068
33.765
33.507
33.287
33.107
32.961
32.835
32.711
32.594
32.497
32.437
32.487
33.033
34.731
37.794
41.562
44.838
46.633
46.681
45.377
43.393
41.338
39.578
38.233
37.247
36.503
35.908
35.429
35.066
34.836
34.771
34.894
35.141
35.389
35.508
35.442
35.215
34.89
34.53
34.177
33.853
33.563
33.314
33.11
32.939
32.791
32.658
32.544
32.453
32.387
32.334
32.286
32.28
32.583
33.817
36.368
39.811
43.067
45.097
45.483
44.485
42.721
40.812
39.174
37.939
37.047
36.372
35.813
35.337
34.969
34.753
34.748
34.977
35.372
35.779
36.039
36.056
35.838
35.465
35.034
34.61
34.24
33.935
33.682
33.465
33.276
33.104
32.955
32.828
32.717
32.62
32.562
32.68
33.416
35.249
38.065
41.074
43.281
44.086
43.514
42.034
40.245
38.622
37.383
36.509
35.872
35.36
34.922
34.57
34.331
34.226
34.276
34.465
34.717
34.929
35.016
34.934
34.71
34.416
34.118
33.843
33.595
33.376
33.188
33.028
32.901
32.801
32.713
32.632
32.555
32.494
32.495
32.865
34.317
37.266
41.192
44.858
47.116
47.538
46.438
44.495
42.366
40.494
39.062
38.032
37.263
36.638
36.11
35.693
35.43
35.374
35.555
35.928
36.351
36.651
36.709
36.509
36.127
35.653
35.161
34.71
34.33
34.022
33.776
33.57
33.386
33.22
33.075
32.949
32.836
32.74
32.695
32.919
34.01
36.471
40.043
43.695
46.267
47.148
46.453
44.753
42.699
40.789
39.252
38.101
37.237
36.564
36.03
35.617
35.341
35.273
35.458
35.841
36.27
36.57
36.63
36.443
36.071
35.606
35.129
34.691
34.308
33.983
33.706
33.471
33.277
33.115
32.971
32.843
32.737
32.653
32.591
32.628
33.148
34.767
37.657
41.179
44.219
45.876
45.907
44.676
42.812
40.887
39.249
38.008
37.104
36.414
35.853
35.388
35.035
34.83
34.809
34.984
35.285
35.576
35.73
35.684
35.465
35.132
34.755
34.386
34.061
33.786
33.549
33.342
33.161
33.006
32.876
32.766
32.67
32.585
32.516
32.474
32.568
33.232
35.027
37.965
41.284
43.903
45.099
44.816
43.496
41.738
40.035
38.657
37.638
36.885
36.287
35.78
35.366
35.081
34.969
35.07
35.366
35.747
36.056
36.169
36.055
35.762
35.375
34.971
34.598
34.278
34.012
33.787
33.596
33.434
33.286
33.147
33.024
32.927
32.858
32.856
33.176
34.36
36.681
39.681
42.404
43.996
44.168
43.181
41.581
39.906
38.488
37.423
36.654
36.07
35.586
35.174
34.858
34.684
34.691
34.892
35.227
35.561
35.753
35.724
35.494
35.144
34.762
34.414
34.122
33.872
33.651
33.458
33.293
33.151
33.026
32.919
32.832
32.77
32.823
33.392
35.082
37.99
41.395
44.179
45.532
45.344
44.04
42.228
40.441
38.976
37.89
37.102
36.486
35.97
35.54
35.213
35.036
35.068
35.325
35.718
36.089
36.284
36.235
35.967
35.561
35.113
34.696
34.338
34.037
33.789
33.587
33.421
33.277
33.145
33.022
32.906
32.82
32.906
33.692
35.814
39.246
43.086
46.095
47.45
47.108
45.607
43.634
41.712
40.108
38.869
37.923
37.179
36.588
36.136
35.836
35.727
35.84
36.139
36.505
36.779
36.844
36.67
36.301
35.826
35.336
34.889
34.505
34.184
33.919
33.703
33.514
33.336
33.171
33.036
32.921
32.828
32.802
33.141
34.513
37.344
41.216
44.997
47.523
48.267
47.461
45.73
43.715
41.844
40.293
39.059
38.067
37.265
36.639
36.193
35.963
35.992
36.271
36.701
37.115
37.343
37.303
37.013
36.55
36.005
35.451
34.949
34.526
34.172
33.87
33.61
33.392
33.218
33.08
32.961
32.846
32.733
32.627
32.564
32.709
33.585
35.743
39.112
42.843
45.769
47.107
46.811
45.378
43.45
41.532
39.891
38.584
37.56
36.75
36.108
35.631
35.319
35.198
35.291
35.567
35.917
36.2
36.295
36.165
35.845
35.414
34.95
34.505
34.106
33.763
33.479
33.244
33.044
32.873
32.731
32.608
32.51
32.44
32.383
32.329
32.277
32.259
32.442
33.342
35.482
38.724
42.196
44.797
45.856
45.393
43.906
42.019
40.217
38.754
37.664
36.856
36.22
35.697
35.282
35.018
34.965
35.158
35.542
35.976
36.285
36.352
36.166
35.798
35.347
34.898
34.499
34.162
33.879
33.629
33.412
33.223
33.061
32.929
32.821
32.729
32.645
32.57
32.509
32.511
32.843
34.034
36.359
39.396
42.201
43.899
44.159
43.211
41.598
39.88
38.411
37.301
36.492
35.873
35.361
34.934
34.608
34.403
34.353
34.474
34.727
35.004
35.186
35.198
35.04
34.773
34.462
34.153
33.871
33.626
33.411
33.22
33.059
32.933
32.832
32.741
32.656
32.584
32.536
32.502
32.471
32.493
32.89
34.345
37.224
41.015
44.537
46.698
47.087
46.022
44.165
42.151
40.382
39.009
37.996
37.231
36.616
36.104
35.698
35.432
35.366
35.539
35.899
36.308
36.592
36.631
36.422
36.031
35.556
35.081
34.652
34.287
33.982
33.733
33.526
33.347
33.188
33.05
32.937
32.84
32.751
32.672
32.615
32.635
33.011
34.342
36.963
40.432
43.709
45.787
46.241
45.309
43.581
41.649
39.923
38.572
37.577
36.827
36.224
35.725
35.331
35.065
34.965
35.068
35.353
35.708
35.985
36.078
35.957
35.658
35.258
34.843
34.463
34.127
33.833
33.582
33.368
33.186
33.032
32.896
32.778
32.679
32.592
32.511
32.443
32.439
32.768
33.983
36.376
39.511
42.417
44.194
44.495
43.566
41.962
40.239
38.768
37.667
36.863
36.236
35.697
35.224
34.838
34.565
34.423
34.425
34.563
34.774
34.95
35.006
34.93
34.761
34.537
34.28
34.023
33.79
33.59
33.421
33.274
33.143
33.021
32.914
32.825
32.749
32.676
32.617
32.603
32.821
33.802
35.974
39.038
42.051
44.033
44.546
43.783
42.284
40.621
39.173
38.076
37.281
36.669
36.153
35.701
35.324
35.048
34.901
34.923
35.128
35.458
35.77
35.923
35.851
35.593
35.237
34.87
34.543
34.27
34.038
33.831
33.651
33.501
33.376
33.267
33.163
33.066
33.034
33.304
34.397
36.611
39.537
42.255
43.897
44.129
43.196
41.646
40.02
38.653
37.637
36.901
36.336
35.856
35.44
35.104
34.869
34.756
34.787
34.955
35.189
35.372
35.406
35.273
35.022
34.72
34.424
34.171
33.961
33.775
33.595
33.431
33.288
33.166
33.067
32.998
32.982
33.246
34.404
36.917
40.435
43.901
46.24
46.948
46.2
44.558
42.631
40.862
39.455
38.409
37.617
36.98
36.445
36.011
35.722
35.629
35.758
36.075
36.454
36.726
36.778
36.598
36.252
35.83
35.398
34.993
34.632
34.324
34.066
33.844
33.648
33.478
33.331
33.204
33.12
33.281
34.267
36.613
40.143
43.883
46.663
47.805
47.376
45.915
44.04
42.207
40.638
39.365
38.338
37.509
36.856
36.389
36.136
36.132
36.375
36.789
37.226
37.528
37.587
37.388
37.001
36.511
35.987
35.48
35.029
34.645
34.328
34.065
33.837
33.642
33.475
33.326
33.189
33.07
33.078
33.624
35.304
38.273
41.902
45.094
46.935
47.154
46.103
44.376
42.51
40.826
39.437
38.318
37.408
36.682
36.153
35.844
35.792
36.011
36.437
36.917
37.275
37.391
37.243
36.89
36.419
35.901
35.394
34.932
34.528
34.181
33.894
33.657
33.461
33.292
33.135
32.992
32.865
32.76
32.742
33.086
34.347
36.854
40.232
43.517
45.73
46.399
45.691
44.128
42.264
40.494
39.009
37.834
36.917
36.21
35.693
35.36
35.223
35.309
35.597
35.992
36.343
36.512
36.439
36.157
35.746
35.286
34.823
34.387
34.004
33.683
33.413
33.188
32.996
32.829
32.687
32.572
32.483
32.416
32.361
32.326
32.426
33.08
34.847
37.799
41.249
44.129
45.647
45.64
44.476
42.732
40.915
39.328
38.068
37.108
36.379
35.826
35.425
35.187
35.168
35.414
35.881
36.414
36.814
36.944
36.787
36.422
35.963
35.498
35.063
34.67
34.32
34.018
33.76
33.543
33.363
33.208
33.071
32.943
32.825
32.73
32.753
33.214
34.615
37.1
40.141
42.796
44.279
44.366
43.344
41.735
40.025
38.528
37.366
36.508
35.86
35.347
34.948
34.686
34.613
34.773
35.144
35.608
35.984
36.13
36.011
35.687
35.257
34.805
34.388
34.038
33.751
33.514
33.315
33.14
32.98
32.837
32.72
32.629
32.561
32.552
32.837
34.015
36.524
40.036
43.514
45.868
46.583
45.831
44.182
42.238
40.426
38.946
37.814
36.963
36.307
35.795
35.415
35.196
35.192
35.433
35.862
36.311
36.597
36.622
36.394
35.998
35.529
35.059
34.624
34.237
33.911
33.646
33.434
33.258
33.098
32.942
32.799
32.686
32.617
32.682
33.317
35.176
38.416
42.304
45.617
47.398
47.439
46.171
44.256
42.253
40.479
39.033
37.892
37.007
36.329
35.827
35.497
35.383
35.533
35.923
36.428
36.859
37.059
36.979
36.662
36.19
35.653
35.126
34.644
34.221
33.869
33.59
33.373
33.191
33.018
32.862
32.74
32.641
32.545
32.466
32.553
33.309
35.337
38.644
42.414
45.461
46.945
46.767
45.406
43.5
41.554
39.854
38.491
37.431
36.608
35.975
35.513
35.233
35.18
35.384
35.799
36.289
36.676
36.814
36.669
36.309
35.838
35.334
34.84
34.387
33.996
33.671
33.398
33.169
32.985
32.838
32.718
32.617
32.53
32.446
32.373
32.349
32.605
33.684
35.981
39.211
42.447
44.67
45.37
44.686
43.142
41.305
39.584
38.18
37.115
36.322
35.721
35.254
34.907
34.701
34.677
34.861
35.207
35.588
35.851
35.897
35.721
35.386
34.985
34.578
34.204
33.872
33.582
33.332
33.134
32.979
32.848
32.735
32.638
32.551
32.472
32.395
32.318
32.262
32.332
32.899
34.502
37.234
40.45
43.123
44.48
44.383
43.212
41.539
39.866
38.478
37.429
36.642
36.019
35.504
35.09
34.804
34.688
34.778
35.056
35.43
35.75
35.895
35.819
35.559
35.195
34.794
34.412
34.084
33.811
33.579
33.376
33.191
33.016
32.859
32.728
32.622
32.532
32.457
32.399
32.389
32.627
33.645
35.847
38.938
41.985
44.013
44.582
43.872
42.395
40.7
39.169
37.965
37.075
36.399
35.851
35.399
35.045
34.818
34.763
34.9
35.195
35.54
35.79
35.849
35.707
35.421
35.069
34.707
34.37
34.072
33.818
33.6
33.409
33.244
33.104
32.995
32.911
32.843
32.779
32.711
32.662
32.801
33.667
35.803
39.078
42.587
45.214
46.303
45.894
44.483
42.672
40.92
39.465
38.351
37.507
36.842
36.303
35.89
35.616
35.505
35.598
35.883
36.256
36.57
36.697
36.588
36.288
35.884
35.449
35.03
34.654
34.335
34.069
33.846
33.649
33.467
33.306
33.176
33.077
32.993
32.907
32.823
32.781
32.959
33.859
35.961
39.093
42.379
44.774
45.676
45.16
43.725
41.942
40.248
38.866
37.825
37.04
36.412
35.891
35.472
35.183
35.072
35.173
35.461
35.83
36.131
36.247
36.151
35.883
35.512
35.111
34.726
34.376
34.076
33.827
33.614
33.432
33.276
33.135
33.004
32.889
32.786
32.688
32.6
32.543
32.665
33.433
35.335
38.244
41.344
43.631
44.517
44.053
42.715
41.058
39.51
38.273
37.348
36.649
36.086
35.61
35.217
34.942
34.816
34.867
35.087
35.385
35.636
35.744
35.679
35.473
35.177
34.851
34.533
34.235
33.969
33.739
33.545
33.384
33.247
33.125
33.027
32.951
32.888
32.834
32.793
32.809
33.127
34.269
36.517
39.441
42.119
43.719
43.951
43.067
41.589
40.02
38.676
37.656
36.906
36.324
35.841
35.437
35.125
34.936
34.913
35.071
35.368
35.7
35.929
35.957
35.782
35.477
35.127
34.798
34.519
34.284
34.077
33.88
33.699
33.545
33.419
33.312
33.21
33.108
33.022
33.035
33.473
34.861
37.336
40.328
42.88
44.243
44.24
43.201
41.651
40.072
38.738
37.718
36.96
36.375
35.901
35.522
35.259
35.142
35.204
35.451
35.805
36.13
36.298
36.249
36.012
35.666
35.286
34.932
34.628
34.368
34.143
33.952
33.791
33.649
33.522
33.403
33.291
33.205
33.24
33.804
35.498
38.437
41.934
44.878
46.443
46.472
45.354
43.667
41.901
40.343
39.096
38.129
37.371
36.772
36.318
36.021
35.926
36.072
36.43
36.886
37.263
37.416
37.304
36.99
36.562
36.089
35.618
35.198
34.84
34.535
34.265
34.019
33.809
33.635
33.485
33.354
33.245
33.217
33.545
34.785
37.265
40.597
43.797
45.896
46.489
45.785
44.304
42.562
40.915
39.524
38.398
37.498
36.794
36.265
35.921
35.794
35.913
36.247
36.677
37.04
37.208
37.137
36.854
36.433
35.943
35.453
35.008
34.624
34.298
34.02
33.774
33.555
33.362
33.191
33.049
32.933
32.844
32.826
33.143
34.352
36.761
39.975
43.049
45.063
45.619
44.904
43.429
41.717
40.122
38.797
37.742
36.906
36.259
35.793
35.515
35.458
35.653
36.063
36.56
36.956
37.112
37.0
36.685
36.254
35.781
35.323
34.911
34.553
34.251
33.994
33.766
33.572
33.418
33.294
33.179
33.067
32.969
32.942
33.219
34.28
36.454
39.448
42.409
44.44
45.106
44.538
43.199
41.58
40.028
38.707
37.641
36.805
36.172
35.72
35.45
35.405
35.64
36.113
36.666
37.104
37.283
37.175
36.834
36.35
35.827
35.338
34.911
34.554
34.261
34.011
33.801
33.628
33.481
33.344
33.211
33.087
32.988
33.046
33.694
35.443
38.301
41.585
44.294
45.697
45.666
44.574
42.944
41.225
39.687
38.424
37.416
36.629
36.044
35.662
35.505
35.627
36.03
36.6
37.131
37.439
37.443
37.173
36.723
36.201
35.686
35.213
34.797
34.438
34.135
33.883
33.67
33.495
33.351
33.228
33.118
33.011
32.925
33.006
33.729
35.685
38.95
42.78
46.01
47.773
47.902
46.802
45.07
43.207
41.513
40.078
38.869
37.857
37.065
36.544
36.338
36.464
36.886
37.488
38.078
38.457
38.515
38.258
37.775
37.177
36.559
35.973
35.445
34.985
34.591
34.263
33.996
33.776
33.598
33.451
33.318
33.184
33.054
32.954
33.017
33.667
35.472
38.536
42.192
45.341
47.11
47.289
46.239
44.532
42.675
40.972
39.524
38.305
37.283
36.477
35.935
35.687
35.747
36.083
36.597
37.123
37.484
37.564
37.362
36.955
36.432
35.876
35.34
34.851
34.416
34.036
33.718
33.464
33.25
33.063
32.915
32.805
32.719
32.642
32.567
32.496
32.502
32.916
34.331
37.034
40.55
43.843
45.935
46.423
45.547
43.882
41.988
40.22
38.729
37.534
36.598
35.886
35.387
35.125
35.151
35.503
36.124
36.827
37.36
37.559
37.402
36.981
36.421
35.825
35.264
34.767
34.336
33.976
33.68
33.437
33.238
33.076
32.944
32.832
32.731
32.633
32.542
32.478
32.539
33.075
34.607
37.271
40.505
43.322
44.908
45.03
43.99
42.321
40.506
38.864
37.536
36.524
35.766
35.206
34.817
34.616
34.671
35.024
35.619
36.28
36.779
36.958
36.788
36.359
35.796
35.221
34.699
34.247
33.87
33.561
33.308
33.101
32.926
32.781
32.672
32.6
32.54
32.474
32.408
32.382
32.606
33.599
35.816
39.061
42.437
44.896
45.838
45.326
43.846
41.964
40.124
38.569
37.361
36.456
35.777
35.26
34.899
34.745
34.865
35.268
35.853
36.429
36.799
36.846
36.583
36.119
35.573
35.023
34.519
34.092
33.754
33.484
33.255
33.059
32.889
32.751
32.642
32.557
32.49
32.435
32.394
32.421
32.806
34.2
37.038
40.933
44.763
47.352
48.157
47.401
45.707
43.689
41.769
40.134
38.802
37.729
36.882
36.247
35.827
35.665
35.808
36.242
36.853
37.451
37.841
37.91
37.656
37.158
36.533
35.888
35.29
34.775
34.343
33.975
33.66
33.395
33.181
33.013
32.881
32.78
32.693
32.608
32.525
32.464
32.55
33.234
35.121
38.339
42.181
45.472
47.291
47.418
46.24
44.386
42.409
40.627
39.147
37.948
36.987
36.243
35.714
35.41
35.36
35.59
36.065
36.647
37.134
37.362
37.286
36.955
36.457
35.884
35.306
34.767
34.285
33.871
33.527
33.26
33.047
32.863
32.699
32.57
32.48
32.419
32.367
32.308
32.244
32.256
32.674
34.095
36.81
40.344
43.649
45.744
46.23
45.337
43.626
41.671
39.864
38.377
37.218
36.326
35.644
35.139
34.807
34.677
34.785
35.127
35.622
36.106
36.404
36.424
36.181
35.76
35.258
34.75
34.276
33.856
33.503
33.217
32.986
32.798
32.644
32.517
32.412
32.326
32.26
32.209
32.166
32.126
32.093
32.121
32.485
33.757
36.256
39.556
42.662
44.632
45.08
44.235
42.632
40.814
39.17
37.867
36.891
36.151
35.567
35.103
34.759
34.561
34.562
34.79
35.185
35.6
35.884
35.947
35.784
35.455
35.04
34.611
34.219
33.88
33.595
33.354
33.145
32.965
32.819
32.703
32.608
32.527
32.462
32.409
32.353
32.299
32.296
32.54
33.523
35.631
38.589
41.523
43.514
44.104
43.426
41.977
40.308
38.807
37.629
36.744
36.065
35.513
35.05
34.688
34.459
34.4
34.543
34.85
35.212
35.497
35.594
35.475
35.195
34.841
34.485
34.163
33.88
33.631
33.418
33.24
33.088
32.957
32.847
32.759
32.692
32.633
32.573
32.518
32.495
32.638
33.396
35.27
38.157
41.263
43.605
44.58
44.198
42.902
41.24
39.635
38.318
37.325
36.578
35.991
35.509
35.126
34.857
34.733
34.791
35.026
35.368
35.688
35.866
35.843
35.645
35.334
34.981
34.632
34.315
34.036
33.786
33.567
33.38
33.222
33.088
32.978
32.892
32.817
32.744
32.684
32.665
32.845
33.714
35.717
38.65
41.667
43.823
44.615
44.113
42.761
41.094
39.528
38.265
37.316
36.601
36.035
35.564
35.186
34.928
34.829
34.925
35.202
35.56
35.858
35.994
35.935
35.716
35.399
35.043
34.691
34.372
34.091
33.85
33.644
33.466
33.31
33.173
33.06
32.97
32.892
32.825
32.786
32.85
33.375
34.897
37.501
40.546
43.061
44.343
44.268
43.18
41.606
40.005
38.65
37.612
36.84
36.245
35.756
35.35
35.055
34.919
34.97
35.198
35.524
35.832
36.015
36.021
35.861
35.576
35.225
34.861
34.52
34.232
33.991
33.788
33.625
33.492
33.369
33.248
33.134
33.036
32.967
32.949
33.122
33.919
35.781
38.565
41.497
43.658
44.507
44.071
42.778
41.161
39.63
38.38
37.435
36.72
36.157
35.697
35.343
35.129
35.09
35.248
35.564
35.929
36.212
36.325
36.244
36.0
35.659
35.289
34.935
34.613
34.329
34.085
33.875
33.699
33.561
33.452
33.35
33.238
33.131
33.067
33.174
33.869
35.636
38.409
41.452
43.804
44.864
44.607
43.424
41.826
40.238
38.9
37.868
37.088
36.481
36.001
35.636
35.404
35.357
35.534
35.887
36.287
36.587
36.689
36.579
36.299
35.924
35.523
35.134
34.783
34.482
34.234
34.02
33.827
33.66
33.525
33.415
33.313
33.217
33.162
33.303
34.089
35.977
38.853
41.956
44.327
45.374
45.075
43.836
42.191
40.571
39.205
38.137
37.306
36.655
36.157
35.806
35.626
35.671
35.957
36.41
36.875
37.188
37.253
37.077
36.731
36.295
35.845
35.423
35.046
34.712
34.421
34.182
33.987
33.823
33.677
33.542
33.421
33.339
33.431
34.116
35.863
38.642
41.766
44.278
45.537
45.458
44.396
42.848
41.22
39.759
38.55
37.588
36.855
36.335
36.012
35.913
36.086
36.514
37.074
37.578
37.86
37.847
37.577
37.144
36.648
36.156
35.698
35.288
34.931
34.631
34.379
34.167
33.986
33.828
33.679
33.545
33.472
33.665
34.601
36.669
39.685
42.854
45.24
46.281
46.009
44.849
43.285
41.678
40.223
38.977
37.947
37.141
36.577
36.298
36.349
36.72
37.312
37.941
38.389
38.537
38.389
38.024
37.529
36.981
36.434
35.926
35.479
35.105
34.801
34.546
34.321
34.118
33.939
33.779
33.642
33.559
33.696
34.477
36.349
39.284
42.606
45.356
46.839
46.926
45.942
44.367
42.639
41.027
39.636
38.465
37.505
36.793
36.4
36.381
36.732
37.357
38.058
38.601
38.836
38.73
38.351
37.815
37.218
36.625
36.065
35.563
35.138
34.789
34.501
34.265
34.073
33.916
33.778
33.647
33.522
33.423
33.468
34.026
35.607
38.38
41.824
44.942
46.855
47.266
46.429
44.851
43.023
41.281
39.757
38.466
37.4
36.591
36.095
35.964
36.211
36.77
37.477
38.11
38.48
38.508
38.236
37.765
37.185
36.563
35.957
35.413
34.949
34.557
34.228
33.973
33.786
33.648
33.533
33.43
33.334
33.24
33.155
33.131
33.405
34.481
36.779
40.107
43.595
46.184
47.255
46.865
45.489
43.676
41.853
40.234
38.855
37.694
36.766
36.136
35.877
36.038
36.602
37.437
38.292
38.909
39.138
38.965
38.482
37.816
37.086
36.377
35.742
35.207
34.773
34.425
34.148
33.93
33.759
33.621
33.51
33.416
33.316
33.202
33.1
33.134
33.654
35.169
37.87
41.279
44.415
46.371
46.797
45.926
44.281
42.386
40.596
39.058
37.777
36.731
35.949
35.493
35.426
35.767
36.442
37.266
37.982
38.376
38.368
38.019
37.455
36.802
36.142
35.526
34.98
34.514
34.133
33.829
33.589
33.404
33.265
33.168
33.112
33.082
33.045
32.981
32.896
32.814
32.852
33.384
34.996
37.955
41.768
45.331
47.606
48.218
47.445
45.858
44.005
42.247
40.719
39.413
38.285
37.36
36.733
36.488
36.641
37.121
37.782
38.424
38.855
38.96
38.732
38.247
37.603
36.889
36.179
35.533
34.979
34.52
34.145
33.835
33.58
33.378
33.235
33.151
33.102
33.071
33.046
33.009
32.94
32.837
32.725
32.754
33.34
35.023
37.96
41.6
44.886
46.872
47.236
46.283
44.602
42.739
41.022
39.572
38.352
37.305
36.468
35.932
35.76
35.956
36.448
37.088
37.681
38.055
38.118
37.872
37.395
36.786
36.129
35.477
34.878
34.361
33.926
33.564
33.268
33.028
32.84
32.701
32.602
32.542
32.513
32.502
32.493
32.471
32.42
32.327
32.207
32.131
32.357
33.419
35.725
39.077
42.623
45.302
46.456
46.092
44.682
42.811
40.951
39.344
38.022
36.938
36.061
35.432
35.119
35.152
35.506
36.086
36.723
37.229
37.453
37.347
36.965
36.411
35.779
35.142
34.549
34.021
33.567
33.191
32.888
32.638
32.428
32.26
32.135
32.05
31.995
31.958
31.931
31.897
31.839
31.764
31.695
31.706
32.094
33.397
35.894
39.206
42.409
44.573
45.251
44.588
43.078
41.261
39.525
38.059
36.894
35.981
35.273
34.771
34.51
34.537
34.869
35.443
36.097
36.621
36.858
36.765
36.407
35.894
35.329
34.78
34.284
33.858
33.495
33.193
32.948
32.75
32.594
32.47
32.381
32.323
32.275
32.232
32.195
32.162
32.127
32.083
32.065
32.265
33.178
35.225
38.241
41.433
43.831
44.842
44.474
43.147
41.403
39.681
38.228
37.102
36.245
35.586
35.076
34.723
34.577
34.697
35.101
35.692
36.259
36.597
36.608
36.329
35.872
35.344
34.816
34.33
33.904
33.543
33.25
33.013
32.817
32.655
32.523
32.415
32.332
32.269
32.22
32.183
32.146
32.104
32.06
32.113
32.635
34.206
36.993
40.413
43.435
45.212
45.48
44.519
42.872
41.053
39.411
38.086
37.06
36.258
35.622
35.148
34.85
34.759
34.92
35.327
35.867
36.357
36.622
36.589
36.297
35.843
35.329
34.827
34.376
33.987
33.661
33.392
33.166
32.977
32.826
32.705
32.601
32.513
32.442
32.39
32.351
32.311
32.272
32.268
32.503
33.536
35.83
39.136
42.543
45.032
46.02
45.568
44.156
42.349
40.575
39.08
37.919
37.029
36.327
35.769
35.35
35.104
35.091
35.357
35.845
36.385
36.778
36.891
36.704
36.303
35.798
35.268
34.77
34.338
33.977
33.675
33.424
33.216
33.038
32.889
32.766
32.668
32.59
32.53
32.486
32.449
32.411
32.379
32.431
32.922
34.432
37.142
40.486
43.444
45.16
45.376
44.394
42.764
41.002
39.443
38.196
37.227
36.461
35.85
35.381
35.064
34.94
35.052
35.397
35.874
36.31
36.547
36.518
36.258
35.862
35.415
34.966
34.548
34.176
33.856
33.584
33.35
33.149
32.99
32.867
32.761
32.669
32.598
32.541
32.49
32.449
32.423
32.471
32.892
34.233
36.709
39.83
42.65
44.344
44.628
43.763
42.248
40.569
39.064
37.867
36.959
36.256
35.697
35.264
34.967
34.834
34.905
35.189
35.613
36.023
36.273
36.284
36.071
35.709
35.28
34.848
34.451
34.112
33.831
33.596
33.395
33.223
33.084
32.968
32.868
32.776
32.692
32.624
32.569
32.525
32.518
32.74
33.678
35.731
38.661
41.629
43.721
44.46
43.937
42.609
40.995
39.474
38.23
37.275
36.54
35.955
35.479
35.119
34.914
34.918
35.162
35.583
36.026
36.325
36.39
36.225
35.903
35.509
35.101
34.716
34.373
34.075
33.821
33.612
33.443
33.296
33.165
33.055
32.969
32.903
32.849
32.8
32.761
32.798
33.223
34.562
36.993
40.0
42.654
44.197
44.392
43.497
42.002
40.385
38.958
37.841
37.002
36.352
35.826
35.405
35.119
35.025
35.161
35.502
35.94
36.324
36.518
36.471
36.22
35.844
35.422
35.012
34.646
34.326
34.048
33.811
33.612
33.446
33.305
33.193
33.102
33.023
32.958
32.906
32.863
32.879
33.235
34.467
36.824
39.86
42.645
44.346
44.667
43.85
42.392
40.775
39.319
38.15
37.25
36.548
35.986
35.551
35.265
35.156
35.253
35.542
35.935
36.294
36.492
36.468
36.243
35.892
35.494
35.101
34.738
34.409
34.114
33.865
33.672
33.518
33.387
33.272
33.169
33.08
33.003
32.936
32.905
33.043
33.776
35.564
38.329
41.349
43.682
44.724
44.454
43.273
41.696
40.138
38.822
37.787
36.985
36.36
35.886
35.554
35.396
35.476
35.822
36.354
36.882
37.216
37.266
37.048
36.656
36.202
35.756
35.353
34.996
34.676
34.393
34.152
33.956
33.796
33.658
33.533
33.416
33.307
33.235
33.32
33.935
35.522
38.07
40.954
43.271
44.395
44.247
43.175
41.667
40.127
38.787
37.717
36.891
36.25
35.765
35.435
35.291
35.39
35.754
36.303
36.853
37.21
37.278
37.066
36.665
36.185
35.704
35.27
34.901
34.596
34.341
34.115
33.913
33.738
33.585
33.448
33.331
33.24
33.272
33.784
35.297
37.943
41.15
43.932
45.503
45.647
44.674
43.108
41.42
39.898
38.641
37.647
36.863
36.257
35.829
35.611
35.658
35.988
36.52
37.085
37.485
37.581
37.367
36.943
36.425
35.899
35.407
34.962
34.574
34.257
34.008
33.812
33.642
33.486
33.352
33.238
33.146
33.112
33.376
34.489
36.894
40.37
43.987
46.661
47.808
47.525
46.317
44.723
43.124
41.694
40.448
39.348
38.384
37.618
37.142
37.023
37.245
37.711
38.257
38.698
38.892
38.784
38.419
37.887
37.282
36.676
36.116
35.619
35.187
34.818
34.516
34.283
34.113
33.986
33.877
33.766
33.643
33.544
33.628
34.31
36.08
38.998
42.433
45.387
47.096
47.379
46.549
45.105
43.5
42.004
40.687
39.514
38.464
37.599
37.027
36.809
36.923
37.267
37.694
38.05
38.211
38.112
37.774
37.27
36.681
36.083
35.518
35.016
34.594
34.256
33.99
33.778
33.599
33.436
33.285
33.14
33.002
32.889
32.884
33.306
34.652
37.12
40.264
43.174
45.019
45.486
44.795
43.425
41.835
40.317
38.975
37.815
36.857
36.151
35.758
35.725
36.052
36.658
37.363
37.938
38.195
38.08
37.667
37.086
36.456
35.858
35.327
34.865
34.47
34.136
33.849
33.604
33.387
33.198
33.044
32.953
33.064
33.737
35.375
37.973
40.947
43.44
44.787
44.824
43.832
42.274
40.569
38.969
37.58
36.444
35.587
35.021
34.769
34.84
35.215
35.809
36.451
36.934
37.117
36.975
36.586
36.067
35.511
34.98
34.51
34.108
33.769
33.477
33.23
33.026
32.857
32.714
32.59
32.491
32.5
32.975
34.497
37.325
40.959
44.332
46.447
46.92
46.036
44.377
42.473
40.655
39.06
37.705
36.596
35.775
35.296
35.2
35.498
36.128
36.911
37.591
37.976
37.991
37.683
37.169
36.552
35.911
35.296
34.741
34.269
33.889
33.59
33.351
33.156
32.997
32.872
32.76
32.652
32.556
32.54
32.9
34.171
36.703
40.154
43.555
45.865
46.575
45.841
44.199
42.218
40.288
38.587
37.156
36.009
35.174
34.683
34.572
34.867
35.522
36.371
37.159
37.659
37.769
37.523
37.034
36.42
35.767
35.132
34.557
34.078
33.698
33.39
33.133
32.921
32.75
32.618
32.526
32.468
32.413
32.333
32.268
32.402
33.195
35.143
38.224
41.697
44.482
45.807
45.566
44.186
42.252
40.24
38.415
36.885
35.676
34.788
34.21
33.953
34.054
34.54
35.328
36.2
36.885
37.204
37.125
36.744
36.193
35.582
34.975
34.406
33.904
33.481
33.141
32.879
32.683
32.539
32.435
32.373
32.356
32.369
32.389
32.397
32.405
32.524
33.119
34.696
37.435
40.839
43.879
45.619
45.76
44.628
42.804
40.799
38.923
37.304
35.993
35.013
34.383
34.139
34.315
34.901
35.783
36.728
37.474
37.863
37.874
37.583
37.109
36.569
36.037
35.536
35.072
34.644
34.257
33.916
33.632
33.416
33.274
33.185
33.116
33.046
32.965
32.865
32.791
32.893
33.491
34.983
37.47
40.458
43.046
44.453
44.437
43.274
41.467
39.464
37.577
35.989
34.78
33.952
33.468
33.303
33.486
34.057
34.954
35.976
36.852
37.354
37.397
37.062
36.505
35.864
35.228
34.641
34.13
33.702
33.356
33.085
32.89
32.761
32.672
32.601
32.539
32.477
32.403
32.337
32.426
33.095
34.911
38.024
41.748
44.863
46.416
46.224
44.736
42.609
40.387
38.399
36.764
35.497
34.564
33.933
33.6
33.632
34.115
35.038
36.219
37.344
38.117
38.393
38.201
37.677
36.972
36.203
35.461
34.803
34.254
33.814
33.477
33.221
33.024
32.878
32.776
32.701
32.628
32.548
32.503
32.682
33.604
35.906
39.61
43.742
46.895
48.191
47.669
45.959
43.743
41.492
39.467
37.77
36.413
35.369
34.638
34.266
34.347
34.93
35.94
37.161
38.287
39.041
39.284
39.042
38.44
37.642
36.783
35.952
35.208
34.59
34.106
33.737
33.455
33.241
33.087
32.983
32.912
32.853
32.787
32.74
32.931
33.925
36.368
40.245
44.502
47.696
48.982
48.45
46.747
44.547
42.324
40.335
38.666
37.293
36.182
35.379
34.992
35.116
35.755
36.798
38.012
39.092
39.769
39.918
39.582
38.909
38.055
37.151
36.29
35.54
34.93
34.45
34.079
33.798
33.594
33.456
33.369
33.306
33.231
33.133
33.048
33.167
33.987
36.134
39.729
43.888
47.212
48.768
48.517
47.019
44.93
42.75
40.765
39.087
37.701
36.568
35.717
35.274
35.353
35.963
36.988
38.188
39.255
39.925
40.068
39.724
39.037
38.174
37.271
36.424
35.694
35.1
34.641
34.292
34.024
33.821
33.676
33.581
33.516
33.463
33.402
33.314
33.212
33.233
33.798
35.555
38.808
42.897
46.458
48.412
48.535
47.287
45.323
43.173
41.161
39.43
37.992
36.81
35.907
35.403
35.425
35.997
36.999
38.188
39.262
39.951
40.115
39.778
39.096
38.24
37.335
36.469
35.698
35.058
34.561
34.19
33.913
33.699
33.542
33.443
33.398
33.389
33.394
33.388
33.345
33.256
33.163
33.246
33.986
35.999
39.409
43.368
46.535
48.021
47.775
46.317
44.278
42.151
40.217
38.58
37.229
36.137
35.372
35.071
35.321
36.094
37.235
38.461
39.437
39.925
39.871
39.377
38.606
37.713
36.816
35.989
35.284
34.727
34.313
34.006
33.768
33.582
33.444
33.358
33.321
33.328
33.356
33.379
33.367
33.292
33.15
32.996
33.027
33.706
35.622
38.925
42.832
46.032
47.606
47.446
46.038
44.001
41.827
39.827
38.126
36.721
35.603
34.837
34.558
34.859
35.702
36.904
38.159
39.148
39.648
39.6
39.105
38.33
37.427
36.516
35.683
34.985
34.446
34.042
33.732
33.491
33.31
33.186
33.118
33.109
33.145
33.2
33.242
33.253
33.212
33.097
32.928
32.803
33.007
34.08
36.51
40.121
43.85
46.451
47.314
46.605
44.9
42.778
40.653
38.757
37.16
35.843
34.828
34.236
34.206
34.778
35.832
37.126
38.334
39.156
39.428
39.167
38.523
37.683
36.791
35.929
35.155
34.504
33.99
33.6
33.307
33.097
32.959
32.878
32.841
32.843
32.871
32.911
32.936
32.902
32.79
32.629
32.534
32.798
33.946
36.406
39.966
43.579
46.05
46.8
46.018
44.273
42.14
40.02
38.134
36.536
35.211
34.212
33.668
33.691
34.296
35.366
36.662
37.861
38.67
38.951
38.729
38.138
37.344
36.483
35.65
34.907
34.283
33.783
33.403
33.121
32.907
32.74
32.62
32.555
32.549
32.582
32.626
32.664
32.678
32.635
32.524
32.384
32.37
32.866
34.424
37.329
41.096
44.533
46.535
46.744
45.514
43.486
41.226
39.098
37.277
35.799
34.65
33.844
33.466
33.612
34.308
35.44
36.749
37.907
38.641
38.844
38.57
37.963
37.177
36.345
35.555
34.863
34.281
33.807
33.426
33.129
32.913
32.766
32.682
32.645
32.637
32.637
32.634
32.614
32.561
32.466
32.367
32.436
33.074
34.795
37.77
41.422
44.593
46.301
46.287
44.95
42.92
40.725
38.694
36.961
35.541
34.431
33.675
33.361
33.559
34.271
35.38
36.636
37.722
38.38
38.531
38.243
37.648
36.894
36.103
35.354
34.695
34.146
33.701
33.346
33.075
32.877
32.736
32.652
32.617
32.614
32.621
32.617
32.576
32.485
32.383
32.414
32.955
34.517
37.338
40.953
44.259
46.217
46.453
45.273
43.278
41.035
38.926
37.129
35.673
34.538
33.738
33.336
33.402
33.974
34.991
36.236
37.388
38.161
38.422
38.221
37.709
37.038
36.315
35.604
34.95
34.384
33.92
33.545
33.243
33.011
32.851
32.75
32.69
32.656
32.622
32.56
32.466
32.366
32.369
32.768
34.055
36.581
40.075
43.552
45.891
46.534
45.65
43.806
41.592
39.439
37.579
36.069
34.896
34.054
33.568
33.497
33.905
34.778
35.941
37.098
37.949
38.321
38.224
37.782
37.152
36.454
35.764
35.133
34.592
34.148
33.794
33.523
33.316
33.151
33.026
32.945
32.886
32.811
32.699
32.569
32.512
32.797
33.921
36.284
39.704
43.281
45.873
46.811
46.163
44.454
42.279
40.087
38.143
36.548
35.309
34.418
33.892
33.786
34.161
35.001
36.144
37.298
38.159
38.552
38.467
38.028
37.389
36.669
35.955
35.294
34.72
34.248
33.875
33.588
33.363
33.182
33.042
32.93
32.824
32.709
32.599
32.578
32.903
34.058
36.432
39.839
43.382
45.934
46.835
46.151
44.401
42.188
39.979
38.023
36.406
35.138
34.24
33.755
33.744
34.248
35.217
36.458
37.662
38.526
38.884
38.749
38.262
37.593
36.889
36.231
35.65
35.146
34.718
34.361
34.059
33.804
33.599
33.43
33.276
33.126
32.985
32.913
33.079
33.903
35.881
39.087
42.807
45.842
47.307
47.06
45.532
43.331
40.977
38.807
36.966
35.49
34.402
33.757
33.614
34.026
34.967
36.269
37.62
38.677
39.216
39.219
38.813
38.16
37.387
36.589
35.84
35.191
34.66
34.25
33.948
33.739
33.603
33.518
33.455
33.383
33.285
33.181
33.18
33.604
34.973
37.613
41.166
44.556
46.689
47.119
46.09
44.171
41.909
39.692
37.735
36.111
34.863
34.073
33.829
34.188
35.111
36.429
37.834
38.978
39.617
39.698
39.339
38.71
37.951
37.162
36.422
35.784
35.254
34.827
34.49
34.225
34.019
33.864
33.747
33.642
33.525
33.401
33.345
33.599
34.623
36.836
40.103
43.52
45.961
46.8
46.128
44.441
42.279
40.063
38.04
36.317
34.938
33.975
33.543
33.724
34.497
35.718
37.117
38.359
39.166
39.422
39.176
38.576
37.786
36.934
36.11
35.381
34.783
34.321
33.969
33.708
33.521
33.392
33.309
33.246
33.168
33.055
32.934
32.892
33.187
34.307
36.67
40.087
43.586
46.006
46.75
45.955
44.16
41.921
39.667
37.661
36.001
34.706
33.818
33.432
33.63
34.412
35.648
37.062
38.293
39.054
39.237
38.918
38.268
37.469
36.645
35.861
35.165
34.595
34.161
33.839
33.602
33.436
33.322
33.244
33.192
33.152
33.099
33.014
32.921
32.955
33.468
34.977
37.751
41.308
44.513
46.346
46.486
45.26
43.243
40.963
38.784
36.886
35.327
34.155
33.463
33.352
33.85
34.879
36.231
37.603
38.675
39.231
39.235
38.805
38.109
37.3
36.485
35.722
35.064
34.531
34.116
33.79
33.536
33.349
33.228
33.161
33.131
33.098
33.03
32.926
32.845
32.961
33.659
35.414
38.34
41.793
44.641
46.033
45.824
44.404
42.324
40.061
37.945
36.141
34.691
33.629
33.042
33.025
33.612
34.717
36.12
37.496
38.509
38.969
38.878
38.377
37.646
36.833
36.037
35.314
34.705
34.218
33.838
33.548
33.338
33.194
33.111
33.07
33.047
33.01
32.933
32.82
32.719
32.772
33.341
34.91
37.678
41.13
44.17
45.854
45.905
44.639
42.608
40.335
38.189
36.359
34.894
33.809
33.15
32.998
33.42
34.393
35.734
37.126
38.231
38.82
38.851
38.435
37.759
36.976
36.18
35.432
34.782
34.255
33.846
33.538
33.316
33.166
33.077
33.026
32.983
32.927
32.846
32.74
32.638
32.669
33.17
34.617
37.24
40.618
43.723
45.57
45.789
44.637
42.663
40.395
38.224
36.369
34.887
33.782
33.099
32.904
33.244
34.1
35.342
36.695
37.818
38.461
38.557
38.207
37.579
36.827
36.06
35.343
34.714
34.2
33.8
33.499
33.272
33.105
32.992
32.925
32.877
32.812
32.712
32.591
32.507
32.648
33.407
35.212
38.128
41.538
44.364
45.764
45.567
44.147
42.062
39.815
37.743
36.003
34.634
33.648
33.076
32.983
33.419
34.351
35.611
36.893
37.874
38.359
38.346
37.954
37.337
36.626
35.908
35.242
34.667
34.195
33.82
33.528
33.302
33.128
32.991
32.884
32.785
32.671
32.545
32.443
32.481
32.977
34.397
36.996
40.403
43.627
45.637
46.001
44.951
43.039
40.808
38.642
36.754
35.224
34.079
33.349
33.085
33.335
34.103
35.282
36.615
37.774
38.49
38.663
38.375
37.785
37.045
36.272
35.552
34.929
34.415
34.008
33.696
33.451
33.262
33.121
33.016
32.923
32.817
32.693
32.59
32.629
33.135
34.59
37.231
40.657
43.848
45.795
46.105
45.027
43.108
40.885
38.735
36.867
35.355
34.218
33.477
33.181
33.388
34.108
35.235
36.523
37.659
38.393
38.624
38.397
37.848
37.136
36.385
35.675
35.056
34.543
34.131
33.808
33.557
33.353
33.183
33.033
32.879
32.703
32.527
32.436
32.676
33.687
35.837
39.011
42.412
44.949
45.925
45.334
43.644
41.439
39.194
37.203
35.589
34.368
33.543
33.155
33.267
33.91
35.005
36.312
37.499
38.292
38.576
38.395
37.896
37.236
36.523
35.831
35.208
34.687
34.272
33.95
33.696
33.493
33.333
33.194
33.044
32.879
32.745
32.736
33.109
34.303
36.65
39.926
43.24
45.533
46.231
45.433
43.65
41.45
39.266
37.336
35.754
34.556
33.775
33.469
33.696
34.466
35.654
36.993
38.151
38.859
39.026
38.738
38.157
37.441
36.7
35.999
35.379
34.867
34.463
34.145
33.897
33.704
33.54
33.383
33.219
33.065
32.995
33.233
34.199
36.278
39.392
42.768
45.316
46.333
45.804
44.176
42.014
39.776
37.749
36.056
34.74
33.853
33.475
33.678
34.458
35.683
37.073
38.282
39.046
39.268
39.02
38.457
37.736
36.97
36.24
35.604
35.093
34.701
34.393
34.144
33.933
33.741
33.557
33.378
33.221
33.15
33.351
34.218
36.184
39.257
42.695
45.368
46.519
46.1
44.559
42.458
40.243
38.193
36.435
35.028
34.049
33.596
33.748
34.505
35.73
37.15
38.407
39.212
39.445
39.185
38.593
37.833
37.037
36.287
35.629
35.086
34.653
34.315
34.052
33.848
33.686
33.538
33.378
33.216
33.119
33.281
34.098
35.995
38.98
42.347
45.011
46.212
45.863
44.359
42.245
39.985
37.878
36.077
34.66
33.694
33.268
33.452
34.228
35.447
36.837
38.07
38.876
39.135
38.901
38.324
37.576
36.788
36.045
35.4
34.869
34.45
34.118
33.857
33.655
33.502
33.368
33.222
33.07
32.967
33.069
33.74
35.446
38.312
41.726
44.581
46.02
45.872
44.499
42.436
40.161
38.006
36.149
34.673
33.644
33.149
33.261
33.98
35.184
36.606
37.899
38.773
39.094
38.901
38.352
37.626
36.848
36.097
35.43
34.873
34.427
34.079
33.819
33.635
33.508
33.404
33.292
33.153
33.012
32.957
33.232
34.283
36.499
39.723
43.054
45.397
46.162
45.44
43.714
41.513
39.251
37.187
35.457
34.144
33.322
33.068
33.436
34.395
35.77
37.25
38.478
39.185
39.294
38.916
38.233
37.407
36.563
35.797
35.163
34.666
34.284
33.991
33.766
33.59
33.446
33.314
33.174
33.028
32.913
32.949
33.455
34.915
37.571
40.966
44.035
45.812
45.978
44.818
42.859
40.598
38.401
36.472
34.898
33.743
33.113
33.092
33.691
34.819
36.25
37.657
38.716
39.231
39.186
38.712
37.986
37.167
36.365
35.646
35.051
34.591
34.245
33.976
33.76
33.584
33.443
33.32
33.201
33.091
33.018
33.09
33.619
35.092
37.762
41.167
44.229
45.986
46.125
44.931
42.942
40.66
38.451
36.518
34.946
33.79
33.151
33.129
33.74
34.887
36.345
37.78
38.86
39.381
39.337
38.863
38.141
37.313
36.473
35.694
35.034
34.518
34.136
33.858
33.654
33.496
33.365
33.244
33.119
32.989
32.885
32.911
33.346
34.66
37.161
40.497
43.636
45.562
45.874
44.81
42.889
40.611
38.352
36.341
34.691
33.469
32.759
32.637
33.131
34.178
35.577
37.009
38.142
38.751
38.802
38.409
37.746
36.972
36.211
35.534
34.972
34.536
34.207
33.949
33.743
33.577
33.442
33.327
33.196
33.027
32.837
32.711
32.868
33.726
35.734
38.877
42.347
44.985
46.049
45.522
43.865
41.631
39.287
37.143
35.338
33.933
32.993
32.609
32.842
33.669
34.952
36.428
37.761
38.664
38.994
38.79
38.212
37.445
36.641
35.887
35.224
34.678
34.254
33.933
33.676
33.461
33.286
33.152
33.039
32.912
32.749
32.57
32.458
32.628
33.509
35.551
38.737
42.239
44.881
45.925
45.365
43.669
41.409
39.053
36.915
35.14
33.77
32.842
32.43
32.61
33.387
34.642
36.119
37.474
38.414
38.798
38.652
38.123
37.378
36.556
35.755
35.04
34.442
33.98
33.647
33.403
33.211
33.058
32.948
32.879
32.83
32.769
32.686
32.633
32.802
33.609
35.528
38.623
42.158
44.955
46.203
45.828
44.266
42.084
39.758
37.616
35.812
34.391
33.388
32.88
32.942
33.592
34.749
36.194
37.585
38.596
39.051
38.967
38.49
37.788
36.992
36.202
35.493
34.891
34.394
33.985
33.667
33.45
33.33
33.295
33.313
33.328
33.308
33.254
33.229
33.433
34.282
36.205
39.198
42.52
45.077
46.146
45.683
44.11
41.954
39.664
37.549
35.768
34.372
33.4
32.933
33.057
33.799
35.061
36.587
38.018
39.026
39.447
39.312
38.783
38.058
37.295
36.594
36.001
35.528
35.167
34.885
34.644
34.415
34.184
33.937
33.666
33.369
33.083
32.879
32.906
33.504
35.12
37.901
41.316
44.303
45.957
46.005
44.756
42.739
40.464
38.296
36.422
34.903
33.793
33.166
33.104
33.636
34.686
36.047
37.398
38.412
38.898
38.861
38.428
37.76
36.989
36.227
35.556
35.003
34.553
34.178
33.855
33.581
33.365
33.201
33.065
32.928
32.789
32.707
32.857
33.623
35.423
38.3
41.62
44.34
45.661
45.436
44.023
41.956
39.711
37.618
35.84
34.435
33.449
32.954
33.018
33.662
34.793
36.169
37.472
38.409
38.821
38.717
38.23
37.529
36.76
36.016
35.36
34.821
34.405
34.084
33.825
33.609
33.434
33.277
33.116
32.943
32.807
32.819
33.267
34.583
37.019
40.24
43.308
45.249
45.63
44.642
42.788
40.586
38.426
36.526
34.989
33.886
33.308
33.334
33.967
35.107
36.519
37.863
38.811
39.193
39.044
38.532
37.838
37.091
36.374
35.727
35.173
34.717
34.345
34.044
33.809
33.634
33.493
33.358
33.223
33.123
33.178
33.685
35.07
37.545
40.732
43.689
45.503
45.808
44.795
42.952
40.789
38.688
36.857
35.366
34.267
33.65
33.606
34.153
35.206
36.549
37.865
38.837
39.277
39.191
38.728
38.07
37.357
36.658
36.011
35.452
35.0
34.648
34.377
34.164
33.988
33.831
33.672
33.504
33.355
33.307
33.574
34.568
36.65
39.693
42.902
45.249
46.111
45.509
43.874
41.752
39.593
37.668
36.075
34.856
34.086
33.859
34.218
35.111
36.364
37.69
38.768
39.373
39.443
39.062
38.396
37.613
36.832
36.127
35.54
35.079
34.73
34.461
34.244
34.063
33.907
33.762
33.601
33.414
33.247
33.227
33.654
34.969
37.422
40.665
43.749
45.695
46.078
45.082
43.213
41.017
38.903
37.081
35.614
34.547
33.97
33.96
34.514
35.524
36.77
37.964
38.837
39.225
39.117
38.642
37.971
37.238
36.531
35.904
35.384
34.97
34.647
34.391
34.183
34.008
33.852
33.695
33.521
33.329
33.158
33.104
33.417
34.529
36.763
39.903
43.08
45.273
45.941
45.168
43.419
41.239
39.077
37.187
35.656
34.501
33.781
33.606
34.035
35.007
36.322
37.669
38.713
39.227
39.174
38.69
37.975
37.191
36.431
35.752
35.188
34.749
34.416
34.16
33.967
33.825
33.715
33.619
33.522
33.41
33.285
33.179
33.197
33.602
34.824
37.145
40.276
43.327
45.334
45.823
44.913
43.087
40.896
38.765
36.934
35.466
34.381
33.735
33.618
34.084
35.073
36.383
37.696
38.692
39.173
39.12
38.66
37.967
37.185
36.412
35.716
35.141
34.701
34.373
34.118
33.916
33.752
33.628
33.538
33.454
33.351
33.229
33.135
33.217
33.813
35.343
37.928
41.074
43.818
45.318
45.299
44.027
42.031
39.841
37.824
36.136
34.804
33.861
33.392
33.49
34.153
35.256
36.555
37.731
38.508
38.757
38.524
37.966
37.26
36.525
35.837
35.236
34.749
34.375
34.096
33.875
33.682
33.51
33.367
33.251
33.136
33.003
32.875
32.824
33.043
33.931
35.88
38.843
42.098
44.599
45.635
45.145
43.551
41.415
39.212
37.232
35.586
34.308
33.456
33.125
33.384
34.207
35.435
36.785
37.929
38.611
38.747
38.415
37.787
37.034
36.275
35.572
34.962
34.474
34.105
33.823
33.593
33.389
33.213
33.077
32.97
32.872
32.77
32.686
32.718
33.133
34.356
36.664
39.786
42.843
44.861
45.352
44.438
42.602
40.395
38.247
36.389
34.899
33.799
33.153
33.035
33.481
34.437
35.722
37.038
38.067
38.599
38.602
38.19
37.534
36.783
36.033
35.35
34.773
34.313
33.949
33.665
33.45
33.291
33.178
33.101
33.023
32.914
32.774
32.651
32.696
33.227
34.668
37.231
40.526
43.563
45.377
45.594
44.451
42.482
40.224
38.066
36.216
34.757
33.72
33.144
33.082
33.564
34.538
35.821
37.12
38.12
38.619
38.596
38.171
37.508
36.744
35.991
35.32
34.753
34.298
33.952
33.704
33.527
33.393
33.283
33.175
33.046
32.891
32.737
32.666
32.882
33.767
35.702
38.658
41.927
44.458
45.529
45.063
43.47
41.306
39.065
37.065
35.428
34.185
33.372
33.046
33.261
34.007
35.16
36.467
37.618
38.357
38.585
38.36
37.828
37.142
36.414
35.724
35.116
34.606
34.198
33.886
33.654
33.48
33.341
33.215
33.079
32.927
32.789
32.769
33.124
34.254
36.459
39.538
42.666
44.839
45.496
44.717
42.977
40.819
38.667
36.768
35.217
34.066
33.383
33.241
33.668
34.598
35.845
37.119
38.113
38.636
38.667
38.321
37.747
37.062
36.353
35.697
35.136
34.68
34.317
34.024
33.78
33.572
33.381
33.2
33.036
32.921
32.941
33.339
34.512
36.741
39.813
42.901
45.029
45.657
44.867
43.118
40.935
38.752
36.824
35.267
34.142
33.527
33.486
34.022
35.049
36.371
37.683
38.683
39.195
39.2
38.804
38.171
37.452
36.748
36.118
35.586
35.15
34.797
34.504
34.247
34.012
33.781
33.553
33.361
33.267
33.447
34.262
36.093
38.957
42.201
44.787
45.975
45.661
44.219
42.172
39.977
37.929
36.183
34.832
33.98
33.728
34.121
35.093
36.445
37.856
38.989
39.61
39.668
39.272
38.61
37.85
37.102
36.432
35.865
35.408
35.048
34.767
34.544
34.362
34.201
34.036
33.873
33.744
33.737
34.105
35.272
37.533
40.623
43.647
45.64
46.148
45.3
43.555
41.414
39.258
37.315
35.701
34.513
33.88
33.906
34.595
35.816
37.294
38.67
39.623
39.984
39.783
39.178
38.368
37.522
36.741
36.075
35.552
35.151
34.842
34.61
34.443
34.314
34.179
34.01
33.815
33.64
33.61
33.998
35.229
37.585
40.755
43.795
45.746
46.184
45.266
43.441
41.2
38.954
36.958
35.334
34.163
33.565
33.624
34.329
35.563
37.075
38.509
39.514
39.897
39.682
39.049
38.199
37.3
36.475
35.783
35.234
34.822
34.522
34.306
34.141
34.016
33.921
33.832
33.721
33.584
33.462
33.47
33.905
35.23
37.739
41.041
44.106
45.96
46.218
45.103
