42.6
41.656
40.837
40.198
39.707
39.244
38.776
38.381
38.209
38.347
38.709
39.129
39.452
39.613
39.575
39.283
38.726
37.981
37.162
36.355
35.634
35.004
34.452
34.01
33.685
33.426
33.199
33.046
33.035
33.142
33.234
33.257
33.267
33.267
33.229
33.152
33.075
33.025
32.943
32.776
32.511
32.231
31.976
31.695
31.344
30.987
30.821
31.374
33.354
36.77
40.654
43.757
45.432
45.763
45.208
44.261
43.226
42.195
41.222
40.353
39.595
38.931
38.338
37.816
37.465
37.471
37.87
38.526
39.205
39.634
39.687
39.44
38.968
38.318
37.563
36.76
35.949
35.209
34.573
34.013
33.522
33.126
32.825
32.636
32.581
32.627
32.719
32.819
32.906
32.965
33.004
33.041
33.055
33.013
32.914
32.746
32.543
32.318
32.065
31.794
31.488
31.192
30.877
30.53
30.284
30.634
32.354
35.725
39.895
43.498
45.614
46.204
45.733
44.716
43.514
42.27
41.061
39.95
38.985
38.136
37.352
36.666
36.229
36.249
36.817
37.829
38.927
39.757
40.153
40.098
39.655
38.909
37.979
36.986
36.046
35.204
34.456
33.798
33.252
32.851
32.587
32.429
32.36
32.353
32.391
32.47
32.596
32.759
32.929
33.048
33.056
32.999
32.941
32.862
32.706
32.446
32.108
31.779
31.449
31.11
30.859
31.138
32.637
35.665
39.485
42.799
44.766
45.32
44.846
43.817
42.567
41.26
39.954
38.629
37.285
35.909
34.611
33.632
33.255
33.697
34.95
36.722
38.478
39.717
40.221
40.058
39.433
38.586
37.672
36.737
35.784
34.851
34.001
33.284
32.72
32.322
32.065
31.899
31.77
31.685
31.68
31.784
32.002
32.262
32.463
32.589
32.649
32.704
32.742
32.678
32.489
32.184
31.767
31.323
31.042
31.401
33.186
36.621
40.768
44.25
46.217
46.637
45.973
44.812
43.536
42.229
40.839
39.426
38.096
36.875
35.786
34.937
34.524
34.763
35.686
37.058
38.494
39.644
40.211
40.138
39.582
38.758
37.842
36.905
35.947
34.986
34.064
33.248
32.588
32.093
31.692
31.385
31.176
31.045
30.985
31.028
31.177
31.403
31.638
31.833
31.966
32.055
32.09
32.037
31.914
31.789
31.647
31.43
31.113
30.768
30.7
31.663
34.465
38.895
43.551
46.925
48.409
48.361
47.464
46.258
44.999
43.727
42.469
41.304
40.303
39.495
38.849
38.32
37.956
37.923
38.271
38.922
39.687
40.307
40.599
40.512
40.112
39.458
38.604
37.63
36.624
35.663
34.817
34.106
33.488
32.97
32.557
32.263
32.072
31.971
31.943
31.951
31.99
32.057
32.171
32.338
32.494
32.601
32.637
32.603
32.49
32.276
31.967
31.595
31.214
30.947
31.125
32.457
35.519
39.802
43.912
46.643
47.666
47.384
46.429
45.23
43.988
42.779
41.641
40.584
39.644
38.828
38.125
37.582
37.355
37.536
38.111
38.91
39.654
40.173
40.324
40.081
39.545
38.825
38.009
37.123
36.188
35.259
34.432
33.739
33.144
32.631
32.196
31.869
31.699
31.723
31.859
31.995
32.082
32.129
32.225
32.396
32.563
32.668
32.682
32.64
32.55
32.409
32.165
31.815
31.41
31.047
30.924
31.584
33.811
37.642
41.934
45.282
46.986
47.173
46.437
45.377
44.21
42.935
41.598
40.298
39.111
38.02
37.025
36.195
35.713
35.796
36.556
37.822
39.151
40.122
40.53
40.406
39.875
39.12
38.305
37.458
36.581
35.719
34.946
34.246
33.599
33.056
32.68
32.474
32.373
32.35
32.395
32.455
32.538
32.675
32.875
33.11
33.298
33.419
33.478
33.464
33.343
33.094
32.752
32.388
32.063
31.877
32.275
33.937
37.02
40.702
43.76
45.494
45.904
45.397
44.41
43.184
41.851
40.485
39.139
37.841
36.583
35.39
34.416
33.958
34.271
35.359
36.966
38.629
39.88
40.482
40.454
39.959
39.206
38.331
37.385
36.447
35.546
34.657
33.856
33.243
32.779
32.395
32.111
31.942
31.857
31.861
31.988
32.222
32.501
32.73
32.887
33.019
33.164
33.236
33.153
32.96
32.686
32.35
31.986
31.686
31.84
33.181
36.11
40.01
43.579
45.822
46.571
46.23
45.316
44.197
42.97
41.631
40.241
38.929
37.741
36.636
35.697
35.091
35.026
35.665
36.919
38.425
39.743
40.535
40.716
40.375
39.692
38.856
37.957
36.958
35.912
34.951
34.134
33.508
33.061
32.676
32.275
31.91
31.726
31.737
31.845
31.968
32.094
32.256
32.478
32.728
32.929
33.033
33.048
32.964
32.719
32.353
31.949
31.582
31.507
32.351
34.794
38.676
42.793
45.858
47.359
47.486
46.738
45.583
44.331
43.105
41.915
40.787
39.791
38.936
38.167
37.519
37.152
37.238
37.802
38.658
39.555
40.291
40.662
40.571
40.097
39.372
38.488
37.523
36.548
35.675
34.912
34.214
33.573
33.027
32.619
32.358
32.2
32.1
32.08
32.132
32.24
32.392
32.532
32.633
32.703
32.753
32.78
32.727
32.611
32.442
32.199
31.845
31.418
31.046
31.083
32.232
35.115
39.288
43.4
46.263
47.518
47.49
46.72
45.663
44.541
43.438
42.383
41.411
40.537
39.796
39.151
38.615
38.292
38.317
38.695
39.242
39.744
40.076
40.187
40.051
39.674
39.054
38.268
37.427
36.6
35.807
35.038
34.317
33.708
33.236
32.876
32.642
32.506
32.411
32.35
32.396
32.544
32.696
32.746
32.708
32.696
32.759
32.8
32.715
32.527
32.304
32.092
31.899
31.652
31.329
30.999
30.957
31.917
34.557
38.54
42.58
45.492
46.864
46.966
46.31
45.318
44.248
43.169
42.114
41.131
40.26
39.506
38.859
38.273
37.876
37.84
38.22
38.889
39.595
40.112
40.308
40.157
39.707
39.035
38.231
37.385
36.564
35.799
35.103
34.5
34.017
33.617
33.288
33.039
32.894
32.841
32.858
32.919
33.01
33.101
33.178
33.276
33.362
33.381
33.319
33.178
32.945
32.654
32.361
32.029
31.626
31.196
30.92
31.229
32.775
35.843
39.728
43.173
45.317
46.021
45.654
44.707
43.56
42.412
41.33
40.25
39.121
38.01
36.993
36.165
35.682
35.702
36.317
37.428
38.695
39.691
40.188
40.152
39.664
38.922
38.098
37.238
36.379
35.58
34.839
34.137
33.484
32.941
32.53
32.251
32.111
32.103
32.174
32.283
32.437
32.653
32.871
33.039
33.127
33.162
33.106
32.952
32.701
32.392
32.05
31.729
31.65
32.341
34.357
37.636
41.262
44.047
45.396
45.493
44.84
43.86
42.737
41.547
40.317
39.078
37.849
36.622
35.462
34.623
34.398
34.929
36.12
37.657
39.058
39.945
40.193
39.891
39.279
38.512
37.631
36.673
35.73
34.874
34.123
33.505
33.032
32.655
32.321
32.059
31.92
31.916
32.041
32.244
32.454
32.665
32.899
33.151
33.368
33.47
33.406
33.157
32.783
32.343
31.905
31.778
32.616
34.962
38.567
42.331
45.083
46.37
46.435
45.777
44.813
43.756
42.662
41.546
40.477
39.517
38.714
38.053
37.54
37.286
37.446
38.032
38.853
39.641
40.157
40.271
39.975
39.388
38.662
37.864
37.003
36.118
35.321
34.65
34.084
33.598
33.185
32.845
32.612
32.505
32.509
32.572
32.705
32.887
33.053
33.171
33.23
33.252
33.239
33.172
33.025
32.802
32.511
32.127
31.789
31.931
33.268
36.17
39.992
43.493
45.769
46.629
46.436
45.701
44.787
43.837
42.921
42.079
41.37
40.787
40.236
39.625
39.042
38.654
38.6
38.869
39.294
39.69
39.925
39.933
39.709
39.308
38.737
37.999
37.205
36.454
35.796
35.211
34.626
34.089
33.669
33.394
33.217
33.107
33.04
33.021
33.096
33.235
33.387
33.513
33.597
33.613
33.527
33.341
33.085
32.753
32.381
32.019
31.785
31.995
33.195
35.74
39.146
42.344
44.517
45.493
45.53
45.011
44.223
43.322
42.421
41.615
40.94
40.317
39.632
38.906
38.295
37.951
37.985
38.359
38.909
39.378
39.61
39.575
39.294
38.805
38.169
37.475
36.79
36.116
35.447
34.774
34.155
33.667
33.346
33.181
33.102
33.006
32.927
32.937
33.032
33.187
33.351
33.421
33.347
33.162
32.932
32.671
32.425
32.301
32.613
33.905
36.375
39.468
42.227
43.943
44.564
44.428
43.85
43.047
42.136
41.221
40.387
39.598
38.804
37.971
37.21
36.733
36.675
37.032
37.703
38.419
38.928
39.154
39.099
38.774
38.258
37.607
36.883
36.107
35.305
34.569
33.962
33.465
33.034
32.709
32.535
32.5
32.564
32.688
32.802
32.857
32.855
32.822
32.787
32.769
32.939
33.687
35.353
37.812
40.425
42.482
43.663
43.975
43.629
42.858
41.881
40.844
39.816
38.789
37.785
36.844
35.995
35.394
35.25
35.665
36.541
37.578
38.411
38.828
38.838
38.552
38.056
37.401
36.628
35.792
34.943
34.166
33.521
32.975
32.574
32.314
32.122
31.969
31.924
32.017
32.151
32.245
32.261
32.184
32.018
31.808
31.607
31.517
31.747
32.735
34.893
37.972
41.095
43.393
44.519
44.648
44.135
43.247
42.108
40.828
39.481
38.089
36.672
35.305
34.118
33.345
33.277
34.063
35.54
37.268
38.71
39.519
39.659
39.278
38.567
37.69
36.754
35.793
34.807
33.9
33.112
32.44
31.912
31.536
31.26
31.083
31.027
31.087
31.23
31.421
31.585
31.674
31.7
31.655
31.57
31.51
31.705
32.719
35.023
38.371
41.753
44.157
45.178
45.009
44.131
42.974
41.737
40.417
38.967
37.334
35.539
33.778
32.427
31.81
32.083
33.27
35.158
37.263
39.048
40.094
40.307
39.887
39.093
38.117
37.057
36.001
35.04
34.168
33.38
32.7
32.206
31.866
31.623
31.445
31.372
31.393
31.467
31.583
31.749
31.91
32.036
32.114
32.236
32.775
34.304
37.121
40.632
43.687
45.461
45.93
45.499
44.565
43.377
42.036
40.578
39.096
37.635
36.166
34.758
33.662
33.186
33.554
34.724
36.413
38.177
39.552
40.216
40.175
39.651
38.829
37.805
36.679
35.554
34.512
33.585
32.788
32.118
31.561
31.126
30.803
30.58
30.523
30.637
30.876
31.158
31.411
31.608
31.738
31.793
31.749
31.578
31.385
31.47
32.56
35.365
39.591
43.881
46.868
48.074
47.843
46.834
45.589
44.316
42.997
41.696
40.509
39.512
38.648
37.861
37.194
36.834
36.964
37.579
38.465
39.368
40.038
40.293
40.105
39.534
38.723
37.832
36.901
35.926
34.943
34.043
33.312
32.746
32.289
31.915
31.628
31.436
31.345
31.391
31.521
31.67
31.833
32.002
32.179
32.323
32.368
32.314
32.156
31.907
31.616
31.365
31.459
32.651
35.598
39.805
43.859
46.526
47.438
47.02
45.966
44.742
43.538
42.349
41.144
39.986
38.927
38.004
37.226
36.658
36.449
36.752
37.526
38.511
39.378
39.905
40.017
39.759
39.249
38.568
37.715
36.746
35.71
34.657
33.712
32.964
32.407
31.951
31.592
31.345
31.213
31.167
31.195
31.29
31.469
31.689
31.892
32.029
32.108
32.129
32.085
31.993
31.815
31.573
31.319
31.06
30.77
30.595
31.11
33.181
37.053
41.692
45.476
47.41
47.639
46.864
45.679
44.336
42.883
41.323
39.749
38.292
37.048
36.022
35.255
34.85
34.986
35.746
37.027
38.532
39.799
40.458
40.451
39.942
39.164
38.242
37.206
36.142
35.13
34.197
33.362
32.674
32.165
31.764
31.413
31.139
31.009
31.061
31.243
31.487
31.74
31.921
31.998
32.042
32.16
32.322
32.445
32.448
32.295
32.044
31.752
31.421
31.09
30.834
30.741
31.236
33.152
36.867
41.462
45.317
47.398
47.736
46.911
45.537
43.969
42.372
40.76
39.132
37.519
35.962
34.56
33.462
32.905
33.156
34.352
36.268
38.384
40.101
41.019
41.085
40.517
39.606
38.561
37.483
36.388
35.293
34.26
33.359
32.621
32.04
31.571
31.217
31.018
30.967
31.033
31.161
31.323
31.524
31.75
32.004
32.295
32.567
32.73
32.74
32.614
32.397
32.096
31.717
31.381
31.431
32.585
35.539
39.893
44.178
46.998
47.966
47.546
46.431
45.096
43.653
42.052
40.309
38.542
36.845
35.285
33.96
33.08
32.884
33.6
35.169
37.18
39.105
40.5
41.103
40.953
40.287
39.335
38.219
36.996
35.759
34.588
33.519
32.594
31.877
31.341
30.921
30.625
30.448
30.369
30.363
30.405
30.482
30.599
30.742
30.886
31.028
31.188
31.336
31.398
31.353
31.225
31.018
30.793
30.617
30.618
31.388
33.873
38.327
43.596
47.885
50.107
50.374
49.426
47.986
46.445
44.829
43.154
41.508
40.0
38.659
37.478
36.508
35.906
35.904
36.622
37.912
39.435
40.761
41.515
41.593
41.148
40.377
39.391
38.269
37.078
35.905
34.812
33.786
32.89
32.192
31.664
31.27
30.993
30.803
30.679
30.612
30.631
30.749
30.917
31.061
31.173
31.274
31.337
31.337
31.32
31.299
31.207
31.005
30.722
30.468
30.429
31.105
33.443
37.777
43.063
47.497
49.917
50.335
49.497
48.176
46.769
45.299
43.715
42.096
40.593
39.275
38.122
37.165
36.482
36.282
36.752
37.861
39.289
40.604
41.427
41.573
41.126
40.333
39.388
38.355
37.243
36.113
35.05
34.127
33.368
32.756
32.243
31.813
31.478
31.256
31.171
31.171
31.235
31.339
31.457
31.591
31.731
31.854
31.957
32.035
32.048
31.97
31.829
31.647
31.415
31.113
30.77
30.585
31.129
33.302
37.411
42.458
46.701
49.02
49.456
48.651
47.258
45.683
44.061
42.398
40.743
39.163
37.672
36.317
35.208
34.56
34.645
35.628
37.3
39.143
40.612
41.383
41.461
41.01
40.2
39.168
38.003
36.81
35.699
34.705
33.827
33.09
32.54
32.167
31.89
31.616
31.349
31.207
31.251
31.449
31.729
32.009
32.213
32.359
32.499
32.61
32.597
32.443
32.224
31.972
31.647
31.25
30.966
31.328
33.178
36.84
41.431
45.41
47.739
48.335
47.715
46.466
45.009
43.496
41.856
40.086
38.312
36.628
35.145
34.03
33.452
33.589
34.582
36.307
38.318
40.068
41.149
41.447
41.057
40.195
39.071
37.824
36.573
35.408
34.35
33.418
32.659
32.052
31.579
31.249
31.038
30.914
30.863
30.89
30.984
31.158
31.433
31.724
31.949
32.06
32.044
31.897
31.668
31.415
31.144
30.875
30.81
31.663
34.31
38.685
43.511
47.233
49.037
49.102
48.089
46.643
45.108
43.54
41.932
40.343
38.817
37.37
36.085
35.178
34.883
35.343
36.531
38.185
39.85
41.093
41.671
41.567
40.915
39.914
38.735
37.497
36.28
35.133
34.137
33.283
32.581
32.028
31.616
31.35
31.209
31.143
31.143
31.209
31.356
31.572
31.86
32.141
32.327
32.414
32.392
32.256
32.014
31.698
31.3
30.884
30.604
30.643
31.694
34.624
39.31
44.399
48.281
50.126
50.128
49.051
47.587
46.093
44.67
43.277
41.92
40.694
39.662
38.811
38.162
37.825
37.898
38.42
39.289
40.208
40.877
41.139
40.945
40.336
39.413
38.322
37.194
36.108
35.12
34.253
33.511
32.898
32.392
31.984
31.678
31.486
31.394
31.372
31.404
31.494
31.621
31.781
31.956
32.12
32.222
32.216
32.129
32.02
31.872
31.645
31.334
30.98
30.662
30.566
31.335
33.862
38.26
43.352
47.453
49.611
49.919
49.082
47.806
46.485
45.218
44.008
42.907
41.948
41.116
40.352
39.639
39.121
38.979
39.252
39.816
40.433
40.869
41.012
40.857
40.407
39.678
38.744
37.727
36.773
35.899
35.13
34.466
33.877
33.354
32.953
32.713
32.584
32.535
32.587
32.714
32.863
33.008
33.114
33.142
33.125
33.074
32.977
32.837
32.649
32.424
32.178
31.908
31.575
31.179
30.8
30.555
30.69
31.944
35.033
39.54
44.041
47.176
48.505
48.399
47.508
46.343
45.13
43.966
42.902
41.917
41.007
40.167
39.393
38.779
38.472
38.572
39.057
39.745
40.374
40.764
40.8
40.475
39.853
39.05
38.183
37.307
36.433
35.588
34.813
34.166
33.689
33.354
33.13
32.987
32.91
32.907
32.974
33.104
33.265
33.421
33.484
33.439
33.341
33.215
33.065
32.896
32.733
32.598
32.447
32.234
31.91
31.507
31.089
30.716
30.487
30.745
32.218
35.385
39.707
43.881
46.729
47.85
47.618
46.64
45.404
44.146
42.935
41.812
40.789
39.862
38.969
38.158
37.599
37.5
37.949
38.822
39.762
40.446
40.727
40.594
40.137
39.435
38.58
37.655
36.713
35.841
35.095
34.496
33.984
33.545
33.192
32.919
32.741
32.684
32.737
32.887
33.114
33.35
33.516
33.574
33.522
33.423
33.3
33.144
32.97
32.802
32.614
32.395
32.124
31.779
31.39
31.016
30.677
30.439
30.54
31.591
34.225
38.249
42.508
45.712
47.244
47.27
46.388
45.156
43.829
42.48
41.158
39.865
38.594
37.371
36.322
35.648
35.579
36.25
37.557
39.117
40.422
41.111
41.118
40.61
39.825
38.922
37.946
36.926
35.94
35.075
34.378
33.797
33.32
32.981
32.804
32.749
32.738
32.761
32.866
33.065
33.307
33.524
33.7
33.828
33.874
33.807
33.642
33.423
33.148
32.785
32.333
31.873
31.478
31.278
31.638
33.186
36.216
40.054
43.463
45.536
46.147
45.701
44.662
43.389
42.038
40.646
39.218
37.788
36.364
35.021
34.009
33.636
34.124
35.476
37.313
39.077
40.297
40.777
40.567
39.878
38.945
37.929
36.923
35.956
35.03
34.212
33.517
32.949
32.512
32.237
32.141
32.182
32.267
32.387
32.58
32.833
33.123
33.389
33.586
33.692
33.706
33.581
33.298
32.888
32.426
32.006
31.794
32.237
33.969
37.188
41.079
44.365
46.269
46.753
46.238
45.199
43.963
42.681
41.418
40.214
39.086
38.008
37.024
36.268
35.963
36.284
37.235
38.541
39.795
40.642
40.897
40.628
39.986
39.149
38.248
37.345
36.456
35.599
34.813
34.138
33.608
33.24
33.025
32.949
32.975
33.068
33.223
33.43
33.668
33.885
34.034
34.121
34.186
34.182
34.064
33.833
33.513
33.106
32.647
32.258
32.262
33.315
35.893
39.514
42.991
45.345
46.324
46.215
45.495
44.539
43.481
42.394
41.373
40.505
39.805
39.227
38.676
38.185
37.973
38.191
38.774
39.471
40.021
40.293
40.243
39.907
39.346
38.671
37.957
37.219
36.45
35.705
35.074
34.592
34.241
33.987
33.806
33.692
33.658
33.696
33.773
33.876
33.981
34.044
34.071
34.091
34.062
34.009
33.92
33.764
33.541
33.24
32.838
32.375
31.925
31.712
32.258
34.18
37.43
41.036
43.833
45.299
45.556
45.035
44.188
43.241
42.29
41.444
40.752
40.194
39.713
39.204
38.706
38.333
38.178
38.282
38.628
39.115
39.535
39.708
39.615
39.274
38.706
37.978
37.197
36.452
35.783
35.166
34.627
34.24
33.983
33.815
33.676
33.583
33.573
33.64
33.742
33.821
33.852
33.849
33.826
33.784
33.732
33.649
33.5
33.34
33.197
33.021
32.778
32.456
32.037
31.599
31.3
31.384
32.381
34.82
38.354
41.888
44.431
45.583
45.521
44.738
43.694
42.677
41.77
40.962
40.307
39.808
39.367
38.904
38.433
38.088
38.035
38.289
38.76
39.273
39.604
39.637
39.419
39.009
38.439
37.736
36.984
36.268
35.581
34.956
34.427
34.025
33.753
33.576
33.442
33.325
33.249
33.282
33.407
33.566
33.699
33.748
33.728
33.683
33.606
33.476
33.298
33.11
32.942
32.747
32.518
32.269
32.005
31.734
31.459
31.198
31.014
31.343
32.97
36.157
40.052
43.398
45.416
46.058
45.677
44.732
43.617
42.519
41.52
40.702
40.085
39.636
39.257
38.814
38.345
38.067
38.133
38.556
39.14
39.639
39.891
39.84
39.513
38.98
38.315
37.578
36.811
36.068
35.393
34.797
34.276
33.829
33.508
33.317
33.219
33.196
33.263
33.386
33.509
33.605
33.679
33.717
33.695
33.651
33.598
33.474
33.283
33.069
32.847
32.621
32.413
32.205
32.001
31.769
31.48
31.2
30.95
30.824
31.302
33.161
36.608
40.696
44.069
45.986
46.466
46.015
45.124
44.057
42.952
41.885
40.963
40.241
39.691
39.168
38.598
38.098
37.859
37.971
38.417
39.061
39.655
40.026
40.078
39.776
39.196
38.458
37.638
36.762
35.896
35.124
34.493
34.012
33.635
33.311
33.078
32.965
32.921
32.9
32.926
33.027
33.192
33.353
33.436
33.414
33.309
33.181
33.041
32.873
32.694
32.486
32.246
32.004
31.775
31.568
31.371
31.118
30.782
30.445
30.281
30.686
32.39
35.769
40.072
43.891
46.242
46.957
46.51
45.529
44.421
43.301
42.145
40.99
39.974
39.182
38.615
38.162
37.722
37.417
37.498
38.043
38.864
39.639
40.119
40.223
39.978
39.457
38.72
37.808
36.821
35.867
35.006
34.256
33.635
33.14
32.785
32.595
32.491
32.413
32.374
32.46
32.655
32.868
33.017
33.061
33.07
33.072
33.044
32.974
32.843
32.658
32.425
32.146
31.859
31.569
31.292
31.056
30.83
30.611
30.405
30.19
30.151
30.931
33.421
37.598
42.162
45.647
47.365
47.532
46.753
45.6
44.404
43.21
41.98
40.779
39.731
38.876
38.13
37.483
37.062
36.999
37.386
38.184
39.116
39.88
40.317
40.331
39.95
39.293
38.473
37.544
36.528
35.52
34.638
33.907
33.325
32.873
32.495
32.213
32.061
32.033
32.08
32.219
32.395
32.558
32.702
32.782
32.793
32.74
32.669
32.611
32.509
32.315
32.059
31.807
31.58
31.341
31.114
30.87
30.61
30.347
30.109
30.077
30.865
33.341
37.585
42.361
46.1
47.981
48.164
47.353
46.164
44.872
43.531
42.153
40.876
39.782
38.86
38.059
37.354
36.818
36.675
37.103
37.995
39.06
40.017
40.588
40.65
40.258
39.536
38.641
37.667
36.67
35.669
34.745
33.956
33.302
32.801
32.444
32.197
32.005
31.828
31.713
31.711
31.829
32.01
32.2
32.362
32.439
32.428
32.361
32.284
32.202
32.056
31.832
31.567
31.299
31.095
30.918
30.702
30.445
30.181
29.958
30.057
31.203
34.198
38.856
43.692
47.157
48.652
48.516
47.493
46.202
44.893
43.55
42.136
40.749
39.514
38.462
37.586
36.932
36.556
36.583
37.139
38.16
39.349
40.339
40.869
40.842
40.316
39.491
38.553
37.583
36.583
35.555
34.576
33.741
33.088
32.565
32.153
31.866
31.711
31.695
31.749
31.835
31.959
32.129
32.299
32.418
32.49
32.534
32.528
32.424
32.256
32.095
31.942
31.728
31.448
31.153
30.878
30.625
30.371
30.106
29.871
29.767
30.328
32.496
36.633
41.768
46.159
48.658
49.218
48.503
47.261
45.897
44.486
43.013
41.566
40.233
39.085
38.102
37.263
36.651
36.418
36.742
37.637
38.876
40.105
40.979
41.26
40.974
40.296
39.385
38.353
37.262
36.176
35.149
34.238
33.483
32.878
32.394
31.99
31.676
31.502
31.488
31.598
31.756
31.915
32.096
32.258
32.356
32.394
32.396
32.363
32.266
32.078
31.878
31.702
31.53
31.296
31.009
30.718
30.435
30.15
29.906
29.881
30.642
33.087
37.444
42.569
46.74
48.95
49.3
48.533
47.309
45.916
44.456
42.992
41.588
40.291
39.135
38.158
37.379
36.826
36.66
37.058
37.994
39.22
40.348
41.046
41.196
40.872
40.213
39.301
38.212
37.056
35.949
34.987
34.146
33.388
32.757
32.293
31.966
31.741
31.65
31.661
31.744
31.883
32.048
32.213
32.364
32.462
32.506
32.501
32.461
32.364
32.201
32.005
31.828
31.633
31.383
31.092
30.792
30.527
30.298
30.078
30.015
30.682
32.996
37.22
42.278
46.496
48.842
49.334
48.628
47.401
46.053
44.648
43.172
41.72
40.411
39.293
38.377
37.624
37.074
36.863
37.156
38.02
39.264
40.478
41.267
41.471
41.106
40.347
39.399
38.398
37.405
36.428
35.461
34.576
33.871
33.327
32.895
32.571
32.354
32.252
32.249
32.294
32.416
32.629
32.885
33.131
33.274
33.282
33.214
33.118
32.972
32.813
32.65
32.435
32.175
31.923
31.65
31.344
31.042
30.753
30.669
31.432
33.873
38.058
42.815
46.594
48.535
48.775
47.995
46.796
45.454
44.079
42.728
41.447
40.318
39.368
38.559
37.87
37.383
37.305
37.79
38.781
39.947
40.853
41.263
41.167
40.686
39.998
39.179
38.247
37.231
36.226
35.302
34.529
33.917
33.434
33.07
32.822
32.68
32.616
32.62
32.698
32.848
33.031
33.224
33.383
33.457
33.439
33.38
33.311
33.209
33.045
32.808
32.532
32.255
31.954
31.618
31.29
31.028
31.034
31.917
34.485
38.629
43.04
46.283
47.79
47.851
47.063
45.896
44.611
43.312
42.085
40.99
40.028
39.205
38.482
37.854
37.43
37.411
37.921
38.854
39.888
40.661
40.957
40.778
40.268
39.552
38.702
37.779
36.844
35.982
35.188
34.462
33.853
33.387
33.057
32.864
32.778
32.756
32.773
32.858
33.008
33.171
33.306
33.359
33.355
33.334
33.306
33.225
33.09
32.909
32.691
32.444
32.176
31.883
31.561
31.225
30.914
30.795
31.451
33.721
37.609
41.98
45.417
47.209
47.494
46.862
45.832
44.669
43.466
42.275
41.168
40.179
39.332
38.612
38.007
37.613
37.598
38.02
38.788
39.704
40.492
40.878
40.788
40.321
39.636
38.824
37.924
37.009
36.138
35.349
34.661
34.094
33.679
33.386
33.192
33.084
33.039
33.039
33.122
33.279
33.46
33.641
33.801
33.907
33.88
33.716
33.48
33.248
33.043
32.883
32.725
32.525
32.255
31.887
31.457
31.059
30.834
31.06
32.353
35.255
39.351
43.343
46.11
47.334
47.304
46.503
45.369
44.172
43.045
41.992
41.03
40.202
39.504
38.898
38.416
38.175
38.293
38.789
39.495
40.154
40.601
40.746
40.537
40.014
39.254
38.407
37.566
36.752
35.957
35.204
34.582
34.111
33.742
33.477
33.314
33.228
33.255
33.374
33.509
33.652
33.761
33.828
33.854
33.797
33.705
33.555
33.323
33.055
32.815
32.618
32.436
32.246
32.064
31.883
31.631
31.284
30.932
30.718
30.947
32.282
35.245
39.358
43.342
46.069
47.204
47.097
46.304
45.236
44.091
42.95
41.901
40.984
40.202
39.492
38.842
38.347
38.098
38.179
38.622
39.288
39.958
40.442
40.599
40.364
39.78
38.96
38.059
37.183
36.423
35.746
35.128
34.574
34.088
33.692
33.387
33.192
33.12
33.15
33.26
33.409
33.529
33.617
33.657
33.649
33.595
33.476
33.306
33.119
32.932
32.7
32.402
32.123
31.901
31.729
31.562
31.38
31.169
30.969
30.766
30.657
31.055
32.697
35.966
40.15
43.938
46.352
47.207
46.894
45.931
44.754
43.595
42.513
41.556
40.747
40.033
39.344
38.682
38.161
37.935
38.115
38.652
39.343
39.975
40.361
40.423
40.162
39.634
38.888
38.021
37.121
36.277
35.523
34.851
34.28
33.827
33.461
33.191
33.051
33.039
33.122
33.267
33.438
33.589
33.692
33.726
33.699
33.614
33.499
33.378
33.19
32.932
32.654
32.395
32.171
31.953
31.759
31.608
31.456
31.302
31.138
30.939
30.711
30.517
30.544
31.32
33.567
37.372
41.682
45.164
47.069
47.471
46.906
45.894
44.713
43.494
42.33
41.246
40.304
39.55
38.947
38.41
37.988
37.876
38.174
38.811
39.575
40.239
40.631
40.647
40.298
39.631
38.741
37.771
36.847
36.009
35.225
34.518
33.968
33.552
33.242
33.057
32.986
32.988
33.045
33.162
33.272
33.36
33.445
33.515
33.522
33.477
33.381
33.218
32.984
32.753
32.543
32.329
32.057
31.736
31.434
31.213
31.067
30.951
30.785
30.541
30.28
30.268
31.131
33.587
37.571
41.97
45.427
47.248
47.539
46.84
45.717
44.467
43.206
42.017
40.951
40.028
39.264
38.57
37.916
37.441
37.348
37.744
38.535
39.466
40.219
40.606
40.576
40.167
39.486
38.62
37.646
36.649
35.726
34.926
34.223
33.628
33.182
32.866
32.652
32.547
32.56
32.66
32.801
32.943
33.078
33.22
33.35
33.434
33.43
33.338
33.176
32.954
32.709
32.44
32.152
31.903
31.723
31.561
31.37
31.125
30.836
30.581
30.371
30.192
30.093
30.35
31.63
34.581
38.921
43.328
46.488
47.9
47.859
46.986
45.784
44.512
43.262
42.047
40.903
39.927
39.122
38.421
37.817
37.492
37.605
38.167
39.009
39.877
40.519
40.771
40.626
40.146
39.416
38.504
37.496
36.49
35.577
34.804
34.156
33.62
33.188
32.868
32.665
32.566
32.564
32.626
32.748
32.913
33.111
33.308
33.414
33.423
33.345
33.188
32.995
32.775
32.557
32.343
32.125
31.915
31.713
31.502
31.268
31.022
30.806
30.607
30.411
30.264
30.336
31.204
33.633
37.682
42.235
45.828
47.726
48.005
47.233
46.051
44.803
43.548
42.286
41.107
40.088
39.242
38.537
37.942
37.549
37.523
37.938
38.753
39.719
40.526
40.933
40.865
40.41
39.702
38.843
37.908
36.973
36.101
35.323
34.658
34.074
33.561
33.113
32.773
32.614
32.633
32.779
33.008
33.249
33.436
33.532
33.554
33.562
33.54
33.453
33.312
33.163
33.0
32.778
32.522
32.3
32.086
31.855
31.598
31.306
31.01
30.742
30.583
30.872
32.315
35.44
39.715
43.782
46.473
47.511
47.298
46.384
45.236
44.059
42.869
41.709
40.619
39.664
38.894
38.277
37.807
37.589
37.777
38.386
39.245
40.095
40.682
40.868
40.653
40.109
39.345
38.471
37.557
36.658
35.81
35.058
34.41
33.888
33.511
33.287
33.177
33.179
33.265
33.398
33.577
33.769
33.944
34.077
34.139
34.135
34.037
33.856
33.659
33.453
33.206
32.945
32.718
32.532
32.346
32.118
31.863
31.588
31.315
31.107
31.159
32.049
34.47
38.276
42.331
45.367
46.84
46.942
46.24
45.208
44.077
42.944
41.883
40.967
40.224
39.595
39.0
38.456
38.109
38.132
38.554
39.258
40.021
40.631
40.892
40.718
40.194
39.461
38.655
37.852
37.087
36.345
35.658
35.075
34.646
34.329
34.106
34.012
34.033
34.132
34.246
34.372
34.53
34.701
34.798
34.797
34.69
34.496
34.283
34.095
33.934
33.754
33.551
33.361
33.171
32.969
32.744
32.521
32.304
32.101
31.933
31.897
32.318
33.85
36.794
40.441
43.601
45.487
46.036
45.636
44.767
43.751
42.747
41.803
40.96
40.285
39.762
39.294
38.835
38.473
38.346
38.541
39.001
39.57
40.05
40.264
40.162
39.816
39.304
38.691
38.002
37.264
36.517
35.829
35.263
34.843
34.547
34.358
34.27
34.268
34.31
34.414
34.594
34.774
34.88
34.922
34.895
34.795
34.636
34.446
34.236
34.036
33.851
33.649
33.422
33.19
32.966
32.771
32.608
32.462
32.273
32.064
31.875
31.869
32.479
34.301
37.347
40.761
43.496
45.004
45.382
44.987
44.196
43.251
42.289
41.418
40.729
40.228
39.843
39.451
39.025
38.647
38.45
38.562
38.95
39.427
39.821
39.994
39.898
39.586
39.089
38.455
37.76
37.053
36.398
35.856
35.411
35.047
34.785
34.614
34.481
34.406
34.428
34.54
34.664
34.749
34.799
34.82
34.818
34.772
34.676
34.537
34.341
34.081
33.809
33.56
33.334
33.146
32.97
32.768
32.56
32.342
32.132
31.954
31.866
32.055
33.028
35.249
38.416
41.589
43.87
44.922
44.94
44.35
43.496
42.591
41.759
41.055
40.49
40.038
39.641
39.238
38.845
38.57
38.549
38.805
39.209
39.624
39.917
39.98
39.758
39.302
38.721
38.078
37.397
36.725
36.137
35.648
35.243
34.914
34.678
34.55
34.502
34.484
34.501
34.568
34.706
34.88
34.98
34.933
34.781
34.607
34.454
34.303
34.135
33.946
33.72
33.467
33.223
32.991
32.786
32.623
32.495
32.386
32.241
32.051
31.953
32.288
33.569
36.046
39.218
42.111
44.017
44.78
44.627
43.915
42.964
42.039
41.259
40.649
40.21
39.872
39.528
39.12
38.745
38.562
38.647
38.97
39.398
39.769
39.952
39.881
39.565
39.06
38.459
37.831
37.192
36.594
36.099
35.696
35.352
35.063
34.854
34.732
34.683
34.664
34.689
34.78
34.904
35.021
35.081
35.03
34.884
34.705
34.51
34.323
34.144
33.95
33.756
33.589
33.429
33.276
33.108
32.902
32.675
32.458
32.282
32.144
32.212
32.956
34.858
37.711
40.636
42.811
43.918
44.115
43.712
43.006
42.183
41.355
40.633
40.077
39.681
39.37
39.043
38.701
38.444
38.376
38.553
38.933
39.346
39.614
39.667
39.481
39.09
38.552
37.952
37.334
36.719
36.152
35.69
35.345
35.093
34.893
34.73
34.635
34.628
34.688
34.766
34.822
34.857
34.878
34.865
34.779
34.642
34.508
34.376
34.22
34.011
33.756
33.506
33.294
33.135
33.007
32.874
32.715
32.502
32.276
32.087
31.937
31.962
32.599
34.33
37.095
40.139
42.573
43.923
44.217
43.794
43.027
42.162
41.325
40.612
40.055
39.626
39.249
38.889
38.574
38.361
38.29
38.44
38.782
39.172
39.467
39.57
39.448
39.109
38.585
37.976
37.348
36.708
36.105
35.627
35.276
34.973
34.676
34.404
34.24
34.248
34.388
34.557
34.681
34.702
34.646
34.597
34.561
34.502
34.422
34.304
34.116
33.875
33.611
33.34
33.074
32.832
32.666
32.594
32.544
32.449
32.324
32.222
32.112
31.968
31.852
32.043
33.109
35.413
38.543
41.545
43.623
44.515
44.431
43.807
42.997
42.145
41.314
40.606
40.074
39.677
39.311
38.905
38.527
38.336
38.413
38.735
39.165
39.55
39.771
39.787
39.57
39.107
38.507
37.87
37.202
36.551
36.002
35.564
35.212
34.935
34.745
34.647
34.594
34.561
34.568
34.626
34.717
34.777
34.777
34.741
34.693
34.622
34.49
34.293
34.045
33.764
33.484
33.254
33.075
32.987
32.96
32.888
32.731
32.536
32.341
32.127
31.913
31.835
32.273
33.787
36.442
39.549
42.183
43.766
44.272
43.987
43.291
42.465
41.648
40.895
40.226
39.697
39.336
39.045
38.742
38.477
38.345
38.448
38.75
39.123
39.46
39.641
39.567
39.219
38.686
38.083
37.46
36.853
36.292
35.806
35.406
35.098
34.86
34.669
34.541
34.496
34.554
34.654
34.733
34.793
34.829
34.846
34.814
34.69
34.52
34.354
34.16
33.91
33.618
33.358
33.172
33.014
32.877
32.761
32.614
32.421
32.236
32.066
31.887
31.765
31.927
32.839
34.88
37.793
40.726
42.869
43.919
44.056
43.61
42.862
42.017
41.196
40.478
39.94
39.559
39.251
38.933
38.584
38.312
38.262
38.52
38.974
39.405
39.643
39.633
39.397
38.943
38.342
37.733
37.164
36.612
36.089
35.672
35.34
35.065
34.813
34.62
34.528
34.499
34.499
34.543
34.644
34.775
34.85
34.835
34.757
34.634
34.499
34.367
34.199
33.972
33.701
33.436
33.238
33.119
33.033
32.915
32.776
32.65
32.53
32.385
32.215
32.095
32.275
33.269
35.419
38.307
41.064
42.973
43.813
43.778
43.188
42.33
41.452
40.674
40.035
39.547
39.183
38.869
38.536
38.234
38.076
38.121
38.415
38.885
39.345
39.603
39.584
39.284
38.805
38.239
37.638
37.021
36.452
35.977
35.589
35.272
35.008
34.79
34.633
34.558
34.591
34.701
34.807
34.876
34.931
34.95
34.914
34.831
34.731
34.601
34.451
34.284
34.072
33.817
33.576
33.378
33.212
33.095
33.004
32.897
32.764
32.61
32.431
32.264
32.192
32.367
33.165
34.97
37.615
40.368
42.471
43.57
43.758
43.309
42.534
41.647
40.776
40.054
39.539
39.198
38.926
38.632
38.344
38.14
38.133
38.344
38.717
39.123
39.429
39.508
39.309
38.907
38.379
37.802
37.242
36.714
36.219
35.804
35.507
35.284
35.078
34.913
34.849
34.902
34.999
35.062
35.072
35.056
35.069
35.082
35.027
34.905
34.751
34.601
34.421
34.236
34.075
33.932
33.816
33.702
33.579
33.419
33.218
33.008
32.83
32.658
32.511
32.523
33.052
34.566
36.991
39.627
41.759
42.998
43.322
42.984
42.275
41.43
40.66
40.061
39.615
39.293
39.04
38.767
38.463
38.252
38.256
38.486
38.858
39.261
39.565
39.624
39.403
38.973
38.437
37.86
37.32
36.84
36.377
35.958
35.64
35.438
35.334
35.274
35.21
35.136
35.1
35.142
35.214
35.239
35.188
35.087
35.003
34.941
34.852
34.705
34.497
34.255
34.044
33.9
33.821
33.757
33.645
33.484
33.315
33.18
33.063
32.933
32.853
33.112
34.188
36.248
38.81
41.138
42.71
43.366
43.253
42.694
41.923
41.093
40.378
39.874
39.546
39.278
38.987
38.668
38.412
38.338
38.52
38.892
39.26
39.494
39.548
39.431
39.159
38.763
38.28
37.763
37.266
36.81
36.413
36.083
35.833
35.637
35.489
35.41
35.39
35.418
35.465
35.486
35.453
35.385
35.339
35.326
35.292
35.198
35.047
34.864
34.668
34.493
34.351
34.19
34.005
33.788
33.505
33.191
32.937
32.797
32.796
33.063
33.877
35.494
37.733
39.962
41.616
42.453
42.523
42.102
41.444
40.731
40.083
39.555
39.176
38.933
38.757
38.557
38.314
38.142
38.171
38.431
38.819
39.173
39.333
39.192
38.807
38.313
37.802
37.332
36.921
36.563
36.231
35.909
35.588
35.32
35.151
35.077
35.108
35.189
35.262
35.312
35.338
35.304
35.208
35.118
35.062
34.987
34.861
34.699
34.514
34.346
34.195
34.022
33.87
33.767
33.682
33.603
33.509
33.415
33.362
33.373
33.558
34.226
35.665
37.703
39.784
41.402
42.321
42.524
42.153
41.449
40.666
40.004
39.564
39.322
39.169
39.012
38.809
38.559
38.382
38.378
38.567
38.892
39.227
39.435
39.422
39.177
38.773
38.296
37.795
37.302
36.872
36.508
36.215
36.022
35.87
35.744
35.652
35.575
35.516
35.515
35.553
35.574
35.558
35.524
35.485
35.428
35.318
35.176
35.038
34.915
34.801
34.681
34.51
34.277
33.999
33.722
33.483
33.284
33.181
33.374
34.155
35.671
37.677
39.672
41.143
41.85
41.832
41.334
40.6
39.821
39.146
38.616
38.198
37.867
37.571
37.255
37.034
37.086
37.452
37.981
38.486
38.849
38.991
38.885
38.565
38.116
37.585
37.021
36.516
36.129
35.827
35.557
35.274
35.029
34.869
34.813
34.839
34.904
34.988
35.053
35.083
35.079
35.042
34.98
34.899
34.795
34.699
34.623
34.541
34.428
34.26
34.024
33.763
33.523
33.325
33.171
33.02
32.952
33.293
34.471
36.482
38.835
40.861
42.138
42.61
42.387
41.74
40.947
40.252
39.733
39.357
39.077
38.802
38.479
38.179
38.012
38.091
38.438
38.91
39.315
39.529
39.522
39.321
38.942
38.426
37.87
37.331
36.861
36.51
36.254
36.011
35.77
35.57
35.427
35.366
35.437
35.607
35.769
35.879
35.916
35.84
35.671
35.457
35.238
35.066
34.94
34.833
34.724
34.594
34.424
34.223
33.991
33.77
33.608
33.529
33.635
34.238
35.589
37.552
39.637
41.279
42.16
42.275
41.834
41.146
40.437
39.805
39.299
38.921
38.638
38.357
38.026
37.76
37.728
37.964
38.363
38.799
39.17
39.382
39.35
39.084
38.66
38.149
37.648
37.222
36.853
36.539
36.264
35.982
35.717
35.523
35.434
35.422
35.44
35.461
35.468
35.444
35.405
35.356
35.312
35.289
35.25
35.161
35.013
34.791
34.509
34.205
33.906
33.654
33.485
33.502
33.942
35.089
36.906
38.954
40.667
41.671
41.93
41.61
40.968
40.243
39.617
39.154
38.879
38.718
38.525
38.213
37.839
37.564
37.58
37.913
38.393
38.824
39.036
38.978
38.721
38.304
37.796
37.328
36.962
36.647
36.324
36.017
35.781
35.632
35.536
35.484
35.438
35.387
35.401
35.474
35.533
35.533
35.501
35.506
35.516
35.475
35.382
35.255
35.053
34.784
34.522
34.306
34.103
33.864
33.644
33.508
33.575
34.142
35.456
37.426
39.55
41.248
42.203
42.398
42.028
41.39
40.769
40.318
40.091
40.038
39.982
39.786
39.442
39.075
38.829
38.808
39.002
39.289
39.508
39.523
39.354
39.098
38.761
38.341
37.885
37.466
37.118
36.807
36.517
36.276
36.093
35.939
35.817
35.778
35.798
35.795
35.764
35.694
35.598
35.494
35.382
35.267
35.159
35.003
34.764
34.508
34.327
34.267
34.274
34.247
34.129
33.963
33.822
33.81
34.095
34.934
36.428
38.296
40.065
41.309
41.793
41.593
41.02
40.401
39.924
39.645
39.53
39.497
39.383
39.087
38.679
38.315
38.131
38.204
38.477
38.79
38.966
38.924
38.7
38.348
37.94
37.538
37.153
36.794
36.478
36.233
36.032
35.841
35.667
35.547
35.49
35.481
35.494
35.518
35.537
35.515
35.448
35.337
35.21
35.062
34.895
34.743
34.605
34.457
34.289
34.146
34.049
33.928
33.727
33.498
33.344
33.382
33.76
34.69
36.243
38.147
39.913
41.092
41.509
41.341
40.853
40.235
39.678
39.308
39.142
39.096
39.043
38.856
38.551
38.273
38.199
38.391
38.747
39.049
39.146
39.018
38.727
38.379
37.997
37.572
37.13
36.724
36.385
36.096
35.883
35.741
35.659
35.586
35.476
35.361
35.313
35.371
35.472
35.51
35.461
35.329
35.158
35.003
34.886
34.763
34.599
34.433
34.28
34.151
34.038
33.896
33.711
33.516
33.382
33.327
33.378
33.749
34.739
36.361
38.282
40.014
41.155
41.538
41.33
40.803
40.221
39.792
39.57
39.481
39.419
39.308
39.087
38.825
38.65
38.636
38.813
39.101
39.319
39.33
39.186
38.942
38.595
38.188
37.759
37.327
36.956
36.633
36.327
36.096
35.966
35.884
35.803
35.746
35.739
35.757
35.769
35.766
35.747
35.675
35.558
35.395
35.177
34.951
34.78
34.653
34.516
34.37
34.236
34.115
33.976
33.839
33.7
33.589
33.51
33.58
34.023
35.054
36.661
38.469
40.0
40.959
41.29
41.092
40.594
40.046
39.651
39.482
39.467
39.427
39.219
38.853
38.485
38.276
38.299
38.495
38.757
38.98
39.047
38.915
38.623
38.249
37.878
37.519
37.174
36.867
36.622
36.403
36.198
36.039
35.931
35.848
35.753
35.63
35.509
35.448
35.453
35.476
35.443
35.326
35.17
35.025
34.907
34.808
34.683
34.56
34.472
34.377
34.244
34.07
33.897
33.745
33.608
33.518
33.58
33.982
34.923
36.429
38.206
39.762
40.707
40.958
40.719
40.248
39.779
39.464
39.32
39.27
39.202
39.036
38.727
38.384
38.189
38.198
38.373
38.628
38.837
38.884
38.719
38.384
37.955
37.511
37.152
36.908
36.74
36.576
36.381
36.172
35.988
35.837
35.732
35.647
35.561
35.49
35.428
35.372
35.305
35.196
35.048
34.924
34.829
34.713
34.545
34.393
34.299
34.228
34.157
34.083
33.996
33.889
33.772
33.66
33.529
33.434
33.507
33.968
35.01
36.579
38.297
39.715
40.527
40.665
40.318
39.793
39.341
39.055
38.915
38.823
38.708
38.535
38.302
38.055
37.94
38.021
38.24
38.499
38.705
38.779
38.649
38.303
37.858
37.43
37.051
36.726
36.467
36.262
36.105
35.956
35.8
35.694
35.645
35.602
35.536
35.446
35.371
35.302
35.251
35.194
35.064
34.871
34.697
34.546
34.416
34.308
34.197
34.043
33.886
33.766
33.701
33.63
33.514
33.417
33.392
33.422
33.595
34.195
35.399
37.065
38.729
39.933
40.467
40.36
39.855
39.261
38.783
38.498
38.389
38.39
38.378
38.205
37.929
37.689
37.595
37.711
38.003
38.312
38.473
38.435
38.212
37.888
37.541
37.194
36.834
36.444
36.029
35.668
35.462
35.43
35.47
35.472
35.363
35.187
35.054
35.037
35.074
35.101
35.056
34.916
34.72
34.543
34.399
34.28
34.165
34.059
33.947
33.818
33.707
33.658
33.643
33.624
33.585
33.504
33.405
33.324
33.309
33.417
33.795
34.615
35.898
37.425
38.853
39.842
40.208
40.018
39.508
38.959
38.537
38.266
38.129
38.091
38.046
37.869
37.594
37.417
37.5
37.787
38.131
38.377
38.406
38.238
37.981
37.701
37.414
37.112
36.8
36.481
36.162
35.843
35.575
35.416
35.383
35.403
35.379
35.331
35.327
35.385
35.454
35.464
35.372
35.218
35.045
34.873
34.722
34.583
34.461
34.336
34.198
34.089
33.992
33.88
33.757
33.628
33.532
33.486
33.475
33.508
33.598
33.872
34.608
35.953
37.679
39.3
40.328
40.587
40.279
39.737
39.199
38.796
38.581
38.492
38.405
38.283
38.12
37.956
37.868
37.898
38.003
38.179
38.382
38.526
38.503
38.286
37.87
37.374
36.966
36.683
36.451
36.188
35.924
35.717
35.609
35.559
35.505
35.448
35.413
35.392
35.383
35.385
35.392
35.37
35.313
35.187
35.0
34.827
34.731
34.694
34.618
34.488
34.346
34.239
34.158
34.094
34.072
34.07
34.038
33.944
33.813
33.7
33.655
33.818
34.412
35.581
37.15
38.712
39.862
40.39
40.377
40.053
39.596
39.16
38.833
38.657
38.608
38.61
38.562
38.454
38.389
38.432
38.575
38.754
38.88
38.887
38.751
38.514
38.247
37.978
37.711
37.42
37.13
36.884
36.666
36.475
36.289
36.098
35.916
35.804
35.804
35.861
35.945
35.974
35.891
35.741
35.618
35.524
35.401
35.233
35.057
34.878
34.699
34.541
34.441
34.395
34.34
34.237
34.134
34.087
34.09
34.103
34.083
34.08
34.237
34.763
35.776
37.173
38.589
39.609
40.026
39.886
39.458
38.993
38.648
38.486
38.455
38.413
38.266
38.057
37.891
37.845
37.935
38.081
38.169
38.168
38.108
38.016
37.897
37.728
37.482
37.177
36.843
36.551
36.349
36.24
36.18
36.116
36.033
35.964
35.927
35.865
35.732
35.579
35.452
35.335
35.205
35.07
34.913
34.725
34.533
34.406
34.354
34.315
34.23
34.134
34.067
34.045
34.027
33.975
33.884
33.765
33.689
33.748
34.061
34.79
35.941
37.282
38.435
39.1
39.21
38.934
38.56
38.279
38.152
38.096
37.986
37.797
37.579
37.421
37.356
37.38
37.461
37.611
37.805
37.987
38.05
37.924
37.613
37.254
36.907
36.594
36.341
36.134
35.975
35.889
35.871
35.867
35.822
35.72
35.617
35.51
35.39
35.331
35.351
35.411
35.442
35.402
35.281
35.11
34.968
34.868
34.785
34.727
34.714
34.702
34.636
34.567
34.504
34.422
34.294
34.162
34.129
34.29
34.752
35.587
36.68
37.736
38.493
38.821
38.746
38.441
38.134
37.94
37.845
37.788
37.681
37.491
37.278
37.191
37.307
37.604
37.956
38.213
38.296
38.186
37.98
37.758
37.526
37.258
36.96
36.646
36.382
36.208
36.095
36.015
35.961
35.901
35.861
35.87
35.913
35.954
35.934
35.827
35.68
35.56
35.477
35.359
35.171
34.97
34.842
34.812
34.852
34.949
35.077
35.299
35.803
36.678
37.786
38.851
39.58
39.854
39.749
39.452
39.142
38.951
38.943
39.03
39.009
38.788
38.481
38.232
38.143
38.236
38.428
38.538
38.491
38.299
38.071
37.872
37.699
37.477
37.217
37.014
36.858
36.701
36.517
36.308
36.116
35.952
35.826
35.746
35.676
35.594
35.516
35.467
35.43
35.327
35.154
34.957
34.785
34.634
34.537
34.511
34.51
34.491
34.552
34.891
35.643
36.747
37.871
38.652
38.961
38.921
38.749
38.615
38.572
38.587
38.57
38.382
38.029
37.642
37.37
37.294
37.387
37.599
37.832
37.965
37.95
37.827
37.629
37.367
37.075
36.788
36.541
36.341
36.169
36.035
35.961
35.897
35.815
35.741
35.713
35.716
35.723
35.72
35.68
35.613
35.521
35.391
35.23
35.059
34.877
34.699
34.528
34.349
34.179
34.077
34.093
34.319
34.873
35.74
36.744
37.647
38.224
38.39
38.247
37.931
37.567
37.268
37.019
36.736
36.382
36.029
35.793
35.772
35.979
36.317
36.644
36.855
36.866
36.694
36.413
36.125
35.901
35.703
35.507
35.306
35.145
35.037
34.962
34.923
34.912
34.875
34.827
34.781
34.71
34.576
34.398
34.252
34.169
34.106
33.987
33.804
33.64
33.611
33.789
34.222
34.882
35.66
36.514
37.339
37.907
38.069
37.832
37.329
36.752
36.231
35.777
35.412
35.201
35.214
35.406
35.698
35.982
36.162
36.185
36.044
35.75
35.386
35.026
34.747
34.609
34.583
34.577
34.554
34.543
34.558
34.589
34.582
34.55
34.509
34.49
34.512
34.564
34.719
35.057
35.669
36.478
37.319
38.017
38.426
38.512
38.363
38.12
37.873
37.698
37.575
37.384
37.067
36.721
36.484
36.463
36.646
36.957
37.258
37.455
37.5
37.329
37.004
36.664
36.411
36.266
36.142
35.976
35.799
35.655
35.582
35.577
35.55
35.499
35.451
35.416
35.416
35.433
35.504
35.797
36.424
37.321
38.305
39.147
39.65
39.763
39.59
39.365
39.238
39.204
39.177
39.056
38.799
38.497
38.27
38.157
38.132
38.193
38.302
38.398
38.401
38.289
38.058
37.717
37.34
36.966
36.612
36.343
36.159
36.034
35.964
35.868
35.731
35.564
35.448
35.376
35.335
35.317
35.252
35.105
34.943
34.912
35.188
35.858
36.878
38.05
39.089
39.749
39.937
39.768
39.5
39.351
39.401
39.564
39.608
39.388
38.926
38.396
38.017
37.917
38.011
38.152
38.253
38.239
38.134
37.925
37.595
37.236
36.921
36.673
36.448
36.205
35.933
35.661
35.422
35.198
35.022
34.934
34.912
34.862
34.745
34.603
34.469
34.362
34.268
34.184
34.123
34.049
33.934
33.815
33.676
33.501
33.3
33.127
33.111
33.461
34.399
35.911
37.611
38.997
39.732
39.817
39.479
39.043
38.777
38.728
38.816
38.901
38.821
38.489
38.048
37.656
37.442
37.449
37.603
37.758
37.82
37.761
37.57
37.253
36.874
36.534
36.266
36.039
35.818
35.589
35.352
35.146
35.001
34.931
34.886
34.834
34.797
34.751
34.678
34.564
34.438
34.304
34.163
33.989
33.776
33.58
33.544
33.845
34.58
35.674
36.861
37.84
38.425
38.577
38.401
38.106
37.847
37.659
37.501
37.32
37.01
36.568
36.18
36.003
36.053
36.262
36.521
36.729
36.796
36.694
36.494
36.275
36.058
35.856
35.66
35.428
35.194
34.995
34.867
34.795
34.749
34.694
34.656
34.616
34.572
34.492
34.365
34.251
34.232
34.418
34.895
35.706
36.746
37.745
38.452
38.768
38.762
38.567
38.315
38.096
37.906
37.729
37.524
37.247
36.922
36.628
36.467
36.497
36.671
36.891
37.053
37.093
37.003
36.826
36.567
36.253
35.94
35.67
35.444
35.252
35.072
34.951
34.931
34.939
34.889
34.826
34.757
34.669
34.59
34.538
34.572
34.863
35.552
36.601
37.805
38.847
39.471
39.597
39.381
39.06
38.858
38.81
38.821
38.737
38.479
38.067
37.61
37.261
37.133
37.226
37.432
37.618
37.685
37.609
37.389
37.079
36.754
36.466
36.24
36.02
35.743
35.423
35.198
35.123
35.142
35.167
35.123
35.012
34.899
34.833
34.79
34.724
34.615
34.492
34.46
34.737
35.505
36.688
37.973
39.017
39.604
39.737
39.571
39.32
39.153
39.112
39.146
39.124
38.97
38.694
38.397
38.18
38.094
38.172
38.316
38.42
38.398
38.253
38.054
37.791
37.454
37.087
36.727
36.405
36.143
35.943
35.762
35.606
35.469
35.358
35.262
35.153
35.047
34.962
34.888
34.819
34.728
34.632
34.547
34.466
34.362
34.209
34.01
33.806
33.628
33.515
33.618
34.26
35.611
37.397
39.06
40.163
40.598
40.508
40.165
39.82
39.638
39.633
39.719
39.752
39.555
39.121
38.666
38.382
38.287
38.296
38.32
38.317
38.269
38.152
37.926
37.645
37.371
37.067
36.72
36.343
36.005
35.774
35.595
35.43
35.313
35.2
35.028
34.851
34.754
34.733
34.737
34.679
34.545
34.394
34.276
34.177
34.046
33.865
33.667
33.489
33.37
33.314
33.309
33.277
33.187
33.076
32.983
32.923
32.899
32.903
32.889
32.904
33.198
34.129
35.74
37.695
39.475
40.635
41.027
40.846
40.41
39.998
39.8
39.824
39.936
39.951
39.78
39.451
39.038
38.689
38.494
38.476
38.574
38.66
38.68
38.608
38.427
38.155
37.806
37.44
37.08
36.755
36.456
36.136
35.844
35.628
35.464
35.325
35.216
35.173
35.175
35.152
35.105
35.012
34.863
34.702
34.555
34.391
34.235
34.097
33.973
33.841
33.689
33.568
33.531
33.522
33.462
33.336
33.192
33.037
32.894
32.789
32.861
33.408
34.656
36.488
38.46
40.057
40.977
41.23
41.039
40.649
40.26
40.081
40.508
41.566
42.675
43.283
43.299
42.982
42.626
42.403
42.306
42.286
42.237
42.064
41.741
41.358
40.974
40.568
40.122
39.642
39.18
38.772
38.423
38.099
37.784
37.497
37.259
37.102
37.01
36.904
36.751
36.573
36.397
36.242
36.066
35.841
35.613
35.373
35.137
34.912
34.674
34.431
34.252
34.167
34.127
34.082
33.972
33.784
33.585
33.396
33.273
33.347
33.876
35.145
37.056
39.147
40.878
41.918
42.247
42.052
41.568
41.031
40.579
40.326
40.257
40.239
40.112
39.788
39.361
39.031
38.896
38.943
39.069
39.198
39.273
39.217
38.952
38.505
37.983
37.482
37.058
36.712
36.409
36.095
35.757
35.461
35.221
35.048
34.958
34.9
34.832
34.755
34.682
34.616
34.556
34.451
34.27
34.062
33.872
33.715
33.567
33.388
33.163
32.949
32.915
33.321
34.414
36.204
38.293
40.158
41.41
41.892
41.697
41.116
40.501
40.09
39.926
39.88
39.735
39.387
38.894
38.438
38.139
38.015
38.07
38.222
38.364
38.36
38.184
37.886
37.544
37.153
36.708
36.255
35.859
35.533
35.238
34.954
34.73
34.57
34.429
34.296
34.172
34.095
34.076
34.062
34.025
33.942
33.805
33.671
33.605
33.577
33.53
33.364
33.082
32.766
32.505
32.287
32.194
32.543
33.639
35.463
37.667
39.737
41.165
41.749
41.62
41.082
40.444
39.933
39.636
39.478
39.317
39.039
38.643
38.227
37.917
37.784
37.816
37.963
38.147
38.258
38.213
37.943
37.508
37.007
36.492
36.005
35.605
35.258
34.924
34.661
34.48
34.294
34.091
33.945
33.9
33.929
33.966
34.011
33.99
33.853
33.627
33.409
33.264
33.146
32.994
32.788
32.579
32.427
32.307
32.191
32.051
31.877
31.714
31.574
31.477
31.572
32.257
33.825
36.131
38.595
40.605
41.82
42.204
41.924
41.266
40.524
39.911
39.502
39.231
38.976
38.628
38.195
37.844
37.709
37.811
38.034
38.256
38.459
38.584
38.512
38.213
37.723
37.168
36.672
36.244
35.854
35.51
35.188
34.865
34.557
34.305
34.125
34.015
33.942
33.882
33.891
33.946
33.924
33.806
33.644
33.497
33.38
33.27
33.119
32.945
32.766
32.537
32.235
31.979
32.011
32.715
34.305
36.523
38.836
40.707
41.81
42.108
41.819
41.243
40.552
39.847
39.209
38.657
38.166
37.734
37.392
37.184
37.171
37.337
37.622
37.959
38.217
38.293
38.124
37.736
37.226
36.699
36.226
35.799
35.381
34.941
34.491
34.083
33.785
33.63
33.602
33.651
33.725
33.775
33.771
33.722
33.635
33.519
33.384
33.236
33.07
32.976
33.232
34.192
35.92
38.062
40.069
41.488
42.124
42.106
41.659
40.973
40.24
39.601
39.071
38.577
38.049
37.495
37.058
36.873
36.968
37.261
37.635
37.958
38.095
38.009
37.732
37.345
36.881
36.364
35.854
35.379
34.902
34.423
33.988
33.694
33.542
33.496
33.518
33.572
33.633
33.656
33.599
33.466
33.309
33.153
33.046
33.197
33.957
35.533
37.699
39.897
41.579
42.466
42.551
42.088
41.411
40.757
40.217
39.783
39.393
38.969
38.516
38.07
37.752
37.676
37.807
38.06
38.32
38.478
38.461
38.249
37.868
37.36
36.785
36.186
35.617
35.127
34.709
34.319
33.944
33.622
33.419
33.326
33.29
33.312
33.404
33.538
33.621
33.562
33.384
33.15
32.873
32.602
32.514
32.988
34.39
36.656
39.238
41.477
42.931
43.476
43.283
42.655
41.901
41.254
40.821
40.555
40.327
40.057
39.694
39.254
38.875
38.649
38.563
38.606
38.719
38.78
38.702
38.469
38.105
37.624
37.066
36.486
35.935
35.472
35.095
34.754
34.41
34.081
33.829
33.671
33.59
33.557
33.52
33.448
33.342
33.219
33.124
33.06
33.002
32.924
32.793
32.605
32.37
32.135
31.927
31.714
31.469
31.223
31.053
31.229
32.335
34.673
37.768
40.766
42.975
44.133
44.356
43.927
43.191
42.429
41.855
41.514
41.307
41.108
40.814
40.376
39.898
39.525
39.358
39.381
39.497
39.61
39.638
39.52
39.216
38.743
38.175
37.558
36.946
36.408
35.945
35.519
35.119
34.749
34.432
34.184
34.051
34.002
33.952
33.856
33.728
33.597
33.483
33.375
33.255
33.109
32.915
32.696
32.469
32.246
32.009
31.773
31.559
31.373
31.246
31.171
31.129
31.078
31.014
30.921
30.787
30.74
31.168
32.672
35.369
38.64
41.627
43.691
44.661
44.729
44.255
43.559
42.809
42.115
41.57
41.219
40.998
40.755
40.394
39.963
39.581
39.369
39.364
39.461
39.539
39.529
39.391
39.089
38.625
38.087
37.539
37.019
36.48
35.911
35.392
34.995
34.702
34.456
34.24
34.054
33.918
33.817
33.745
33.681
33.637
33.602
33.539
33.414
33.248
33.074
32.899
32.708
32.473
32.196
31.927
31.661
31.401
31.189
31.073
31.054
31.06
31.005
30.856
30.667
30.488
30.513
31.284
33.348
36.548
40.028
42.857
44.55
45.158
45.009
44.448
43.688
42.865
42.125
41.571
41.21
40.907
40.555
40.132
39.746
39.518
39.492
39.624
39.823
39.99
40.041
39.909
39.565
39.048
38.416
37.746
37.122
36.559
36.046
35.533
35.048
34.653
34.359
34.146
33.993
33.895
33.85
33.82
33.793
33.735
33.643
33.527
33.386
33.205
32.995
32.761
32.507
32.257
32.036
31.854
31.688
31.516
31.33
31.158
31.036
30.948
30.889
30.866
30.851
30.79
30.78
31.313
33.046
36.032
39.453
42.36
44.244
45.083
45.095
44.56
43.767
42.919
42.141
41.509
41.014
40.605
40.233
39.853
39.525
39.359
39.36
39.475
39.669
39.802
39.766
39.568
39.24
38.805
38.304
37.735
37.112
36.484
35.898
35.355
34.878
34.49
34.209
34.036
33.935
33.841
33.764
33.716
33.65
33.552
33.454
33.377
33.303
33.19
32.988
32.716
32.425
32.183
32.047
31.964
31.801
31.551
31.3
31.089
30.919
30.802
30.727
30.637
30.542
30.555
31.041
32.643
35.489
38.893
41.885
43.809
44.593
44.516
43.943
43.137
42.255
41.35
40.473
39.699
39.064
38.538
38.113
37.834
37.82
38.115
38.578
39.029
39.34
39.446
39.369
39.109
38.649
38.053
37.387
36.679
36.015
35.442
34.958
34.516
34.147
33.883
33.687
33.549
33.506
33.518
33.543
33.574
33.596
33.617
33.638
33.605
33.478
33.282
33.098
32.943
32.788
32.575
32.261
31.875
31.524
31.469
32.265
34.317
37.244
40.177
42.394
43.619
43.934
43.632
43.009
42.244
41.391
40.513
39.666
38.887
38.173
37.501
36.995
36.835
37.096
37.668
38.313
38.802
39.05
39.053
38.823
38.43
37.911
37.275
36.602
35.957
35.375
34.84
34.346
33.916
33.578
33.342
33.185
33.13
33.177
33.314
33.466
33.573
33.635
33.66
33.628
33.505
33.272
32.978
32.689
32.443
32.43
33.146
34.952
37.598
40.32
42.423
43.646
44.031
43.789
43.199
42.443
41.653
40.887
40.169
39.478
38.795
38.148
37.657
37.437
37.579
38.007
38.482
38.847
39.024
39.001
38.823
38.473
37.945
37.332
36.701
36.081
35.497
34.943
34.446
34.077
33.85
33.734
33.667
33.613
33.583
33.627
33.732
33.818
33.828
33.774
33.667
33.475
33.201
32.874
32.624
32.888
34.169
36.446
39.156
41.633
43.371
44.204
44.296
43.91
43.289
42.559
41.782
41.063
40.499
40.017
39.514
39.015
38.651
38.491
38.551
38.786
39.096
39.343
39.442
39.347
39.07
38.675
38.153
37.506
36.831
36.225
35.693
35.225
34.829
34.528
34.335
34.236
34.189
34.157
34.107
34.058
34.007
33.929
33.834
33.725
33.626
33.51
33.336
33.084
32.764
32.503
32.628
33.56
35.472
38.08
40.733
42.757
43.834
44.106
43.863
43.329
42.654
41.97
41.372
40.892
40.498
40.117
39.695
39.262
38.894
38.702
38.75
39.003
39.303
39.465
39.399
39.127
38.719
38.225
37.699
37.125
36.533
35.991
35.52
35.13
34.806
34.551
34.384
34.311
34.25
34.151
34.042
33.983
33.918
33.791
33.653
33.536
33.423
33.303
33.207
33.122
33.004
32.815
32.561
32.245
31.909
31.655
31.818
32.955
35.246
38.238
41.13
43.226
44.241
44.349
43.922
43.295
42.66
42.108
41.698
41.437
41.202
40.866
40.383
39.847
39.436
39.279
39.342
39.513
39.664
39.715
39.567
39.236
38.768
38.218
37.686
37.186
36.663
36.12
35.595
35.165
34.848
34.609
34.427
34.287
34.161
34.052
33.934
33.777
33.595
33.467
33.403
33.342
33.219
32.999
32.728
32.45
32.248
32.122
32.017
31.897
31.777
31.624
31.446
31.277
31.132
30.983
30.835
31.051
32.296
34.823
38.062
41.087
43.246
44.354
44.592
44.257
43.669
43.081
42.599
42.269
42.056
41.827
41.501
41.023
40.465
39.977
39.643
39.473
39.459
39.5
39.538
39.493
39.312
38.999
38.568
38.052
37.484
36.892
36.32
35.801
35.357
35.015
34.74
34.51
34.326
34.194
34.095
34.044
33.987
33.844
33.63
33.451
33.306
33.143
32.941
32.726
32.529
32.338
32.111
31.883
31.7
31.571
31.499
31.449
31.382
31.304
31.218
31.074
30.898
30.739
30.707
31.143
32.587
35.207
38.415
41.344
43.386
44.371
44.501
44.16
43.641
43.094
42.646
42.334
42.11
41.899
41.574
41.085
40.507
39.986
39.647
39.5
39.509
39.583
39.618
39.533
39.294
38.934
38.507
38.006
37.424
36.793
36.203
35.675
35.258
34.934
34.644
34.37
34.153
34.068
34.068
34.046
33.955
33.826
33.672
33.509
33.36
33.235
33.058
32.786
32.477
32.227
32.064
31.964
31.863
31.733
31.602
31.547
31.532
31.438
31.232
30.998
30.854
31.004
31.928
34.002
36.982
40.104
42.609
44.129
44.681
44.496
43.931
43.24
42.528
41.904
41.43
41.052
40.675
40.242
39.772
39.332
39.041
38.96
39.063
39.259
39.424
39.451
39.269
38.89
38.382
37.795
37.181
36.609
36.136
35.727
35.372
35.028
34.67
34.362
34.106
33.898
33.777
33.731
33.73
33.728
33.678
33.582
33.457
33.293
33.087
32.888
32.741
32.623
32.476
32.281
32.078
31.851
31.583
31.269
30.953
30.742
30.942
32.087
34.417
37.447
40.379
42.563
43.738
44.013
43.686
43.07
42.349
41.628
41.02
40.563
40.14
39.625
39.035
38.53
38.271
38.298
38.552
38.918
39.212
39.349
39.29
39.017
38.563
37.977
37.344
36.716
36.097
35.506
35.008
34.614
34.298
34.009
33.749
33.574
33.495
33.519
33.604
33.639
33.581
33.482
33.36
33.279
33.27
33.281
33.254
33.157
32.957
32.634
32.234
31.878
31.689
31.887
32.888
34.906
37.61
40.337
42.497
43.794
44.244
44.045
43.427
42.665
41.987
41.461
41.009
40.497
39.88
39.244
38.69
38.348
38.288
38.447
38.754
39.091
39.312
39.323
39.09
38.647
38.087
37.491
36.913
36.365
35.842
35.348
34.853
34.376
33.992
33.762
33.698
33.704
33.693
33.652
33.61
33.577
33.546
33.465
33.282
33.055
32.895
32.823
32.716
32.482
32.139
31.8
31.678
32.168
33.7
36.215
39.081
41.567
43.205
43.92
43.942
43.556
42.975
42.381
41.83
41.286
40.743
40.18
39.559
38.916
38.393
38.159
38.238
38.502
38.776
38.946
38.945
38.735
38.355
37.87
37.31
36.683
36.012
35.376
34.839
34.445
34.172
33.936
33.708
33.48
33.295
33.189
33.156
33.164
33.178
33.169
33.121
33.048
32.975
32.899
32.792
32.6
32.356
32.067
31.765
31.504
31.293
31.391
32.353
34.52
37.512
40.536
42.923
44.315
44.735
44.439
43.787
43.061
42.401
41.875
41.484
41.151
40.73
40.148
39.503
38.931
38.603
38.557
38.7
38.905
39.083
39.114
38.924
38.515
37.968
37.365
36.752
36.16
35.589
35.023
34.551
34.204
33.945
33.746
33.613
33.523
33.418
33.322
33.288
33.278
33.215
33.081
32.891
32.698
32.565
32.485
32.403
32.273
32.122
31.964
31.762
31.483
31.167
30.856
30.598
30.628
31.522
33.683
36.813
40.093
42.757
44.422
45.069
44.936
44.348
43.604
42.927
42.415
42.056
41.751
41.396
40.942
40.364
39.772
39.368
39.247
39.369
39.577
39.751
39.799
39.633
39.244
38.663
37.972
37.205
36.447
35.823
35.329
34.913
34.522
34.186
33.952
33.778
33.598
33.438
33.353
33.324
33.301
33.202
33.032
32.861
32.742
32.642
32.448
32.148
31.857
31.657
31.559
31.51
31.395
31.172
30.974
30.911
30.929
30.924
30.839
30.677
30.412
30.211
30.666
32.471
35.656
39.384
42.638
44.8
45.727
45.682
45.148
44.452
43.771
43.21
42.782
42.435
42.12
41.742
41.232
40.674
40.192
39.86
39.742
39.795
39.87
39.848
39.698
39.431
39.041
38.528
37.939
37.317
36.678
36.046
35.491
35.042
34.693
34.437
34.248
34.071
33.886
33.705
33.542
33.409
33.303
33.25
33.211
33.148
33.071
32.971
32.834
32.624
32.362
32.129
31.906
31.699
31.542
31.434
31.343
31.271
31.2
31.144
31.113
31.098
31.037
30.885
30.708
30.735
31.553
33.678
36.901
40.431
43.402
45.26
45.929
45.695
44.998
44.184
43.453
42.847
42.412
42.11
41.808
41.405
40.908
40.418
40.069
39.887
39.896
40.068
40.264
40.297
40.083
39.676
39.166
38.621
38.067
37.469
36.824
36.204
35.663
35.201
34.85
34.635
34.529
34.442
34.291
34.104
33.928
33.813
33.777
33.766
33.712
33.563
33.322
33.068
32.864
32.662
32.391
32.102
31.858
31.691
31.586
31.471
31.345
31.247
31.203
31.178
31.154
31.081
30.953
30.8
30.651
30.703
31.485
33.58
36.833
40.371
43.29
45.103
45.842
45.783
45.214
44.4
43.545
42.794
42.242
41.878
41.595
41.271
40.827
40.343
39.966
39.754
39.7
39.748
39.817
39.816
39.707
39.441
38.977
38.365
37.678
37.006
36.429
35.911
35.437
35.029
34.687
34.389
34.143
33.984
33.896
33.826
33.77
33.69
33.54
33.373
33.249
33.139
33.015
32.854
32.644
32.406
32.205
32.021
31.832
31.631
31.435
31.251
31.106
31.022
30.991
30.954
30.849
30.675
30.487
30.34
30.42
31.265
33.462
36.837
40.493
43.492
45.295
45.949
45.757
45.051
44.131
43.243
42.504
41.958
41.566
41.205
40.841
40.42
39.957
39.585
39.396
39.447
39.655
39.859
39.947
39.846
39.547
39.062
38.448
37.798
37.134
36.485
35.86
35.271
34.774
34.383
34.112
33.936
33.822
33.698
33.575
33.499
33.483
33.476
33.435
33.357
33.23
33.085
32.915
32.733
32.574
32.382
32.149
31.929
31.73
31.524
31.332
31.242
31.243
31.26
31.231
31.14
30.983
30.797
30.646
30.61
30.95
32.277
34.938
38.451
41.876
44.397
45.739
46.028
45.625
44.888
44.065
43.321
42.706
42.236
41.91
41.659
41.333
40.867
40.381
40.001
39.87
39.977
40.163
40.268
40.219
39.989
39.638
39.216
38.685
38.084
37.468
36.844
36.269
35.768
35.356
35.013
34.719
34.513
34.363
34.224
34.1
34.025
33.966
33.927
33.88
33.776
33.601
33.391
33.169
32.942
32.75
32.589
32.433
32.251
32.047
31.846
31.68
31.568
31.524
31.558
31.571
31.492
31.321
31.074
30.875
30.997
31.92
34.057
37.211
40.609
43.415
45.182
45.861
45.697
45.074
44.259
43.402
42.681
42.154
41.813
41.602
41.353
40.941
40.44
40.021
39.833
39.864
39.985
40.075
40.049
39.871
39.546
39.115
38.577
37.975
37.371
36.817
36.286
35.764
35.309
34.978
34.739
34.52
34.317
34.181
34.15
34.179
34.151
34.026
33.875
33.738
33.577
33.361
33.155
32.991
32.849
32.684
32.424
32.111
31.844
31.645
31.503
31.387
31.297
31.232
31.173
31.089
31.015
30.969
30.885
30.772
30.812
31.511
33.461
36.53
39.911
42.793
44.728
45.608
45.601
45.038
44.225
43.384
42.648
42.062
41.654
41.361
41.068
40.673
40.23
39.872
39.734
39.801
39.918
39.998
40.008
39.889
39.591
39.148
38.591
37.957
37.294
36.646
36.046
35.51
35.062
34.697
34.392
34.171
34.025
33.923
33.839
33.778
33.727
33.681
33.62
33.502
33.321
33.115
32.951
32.823
32.685
32.524
32.329
32.097
31.844
31.603
31.423
31.309
31.233
31.213
31.265
31.342
31.395
31.38
31.241
30.992
30.712
30.694
31.527
33.727
37.023
40.532
43.362
45.102
45.78
45.618
44.946
44.069
43.195
42.465
41.928
41.582
41.33
41.046
40.65
40.203
39.859
39.699
39.738
39.869
39.955
39.902
39.723
39.45
39.079
38.608
38.031
37.38
36.752
36.176
35.673
35.27
34.965
34.705
34.492
34.362
34.275
34.182
34.082
33.958
33.84
33.762
33.727
33.678
33.532
33.292
33.009
32.744
32.554
32.427
32.32
32.138
31.9
31.702
31.591
31.531
31.481
31.43
31.379
31.279
31.097
30.892
30.817
31.207
32.628
35.252
38.562
41.7
44.013
45.266
45.566
45.208
44.51
43.682
42.85
42.135
41.648
41.3
40.964
40.586
40.133
39.722
39.467
39.418
39.567
39.8
39.976
39.991
39.792
39.394
38.847
38.227
37.569
36.91
36.288
35.713
35.257
34.94
34.668
34.389
34.127
33.924
33.799
33.729
33.679
33.642
33.606
33.522
33.38
33.201
33.056
32.963
32.889
32.757
32.571
32.382
32.184
32.006
31.875
31.785
31.718
31.63
31.512
31.353
31.127
30.901
30.809
31.117
32.326
34.748
38.028
41.305
43.783
45.129
45.416
44.97
44.148
43.239
42.416
41.73
41.19
40.773
40.414
40.036
39.648
39.321
39.154
39.212
39.442
39.676
39.771
39.719
39.519
39.211
38.802
38.264
37.598
36.853
36.161
35.628
35.256
34.93
34.603
34.325
34.133
34.031
33.978
33.977
34.015
34.015
33.944
33.811
33.685
33.578
33.439
33.283
33.117
32.918
32.674
32.405
32.184
32.069
32.043
32.01
31.932
31.799
31.624
31.402
31.148
31.004
31.345
32.718
35.291
38.535
41.594
43.819
45.004
45.258
44.861
44.105
43.221
42.364
41.632
41.065
40.625
40.221
39.776
39.339
39.02
38.891
39.011
39.278
39.525
39.65
39.599
39.366
38.998
38.498
37.921
37.33
36.786
36.324
35.935
35.568
35.22
34.906
34.639
34.423
34.258
34.128
34.033
33.964
33.923
33.909
33.89
33.828
33.71
33.561
33.415
33.251
33.07
32.864
32.625
32.425
32.281
32.162
32.045
31.875
31.628
31.384
31.243
31.315
31.981
33.695
36.429
39.567
42.343
44.227
45.075
45.077
44.544
43.761
42.949
42.208
41.564
41.067
40.662
40.255
39.824
39.449
39.254
39.278
39.453
39.654
39.787
39.806
39.654
39.304
38.84
38.35
37.824
37.255
36.653
36.085
35.637
35.317
35.087
34.861
34.633
34.434
34.283
34.156
34.072
34.012
33.944
33.847
33.726
33.608
33.495
33.364
33.213
33.043
32.835
32.624
32.481
32.363
32.192
31.972
31.709
31.42
31.152
30.991
31.08
31.792
33.544
36.256
39.353
42.092
43.95
44.775
44.75
44.209
43.436
42.662
42.014
41.507
41.085
40.642
40.131
39.617
39.236
39.092
39.168
39.377
39.596
39.718
39.704
39.553
39.268
38.881
38.414
37.851
37.216
36.578
36.026
35.595
35.259
34.945
34.619
34.341
34.114
33.95
33.871
33.867
33.912
33.924
33.868
33.768
33.624
33.466
33.3
33.11
32.901
32.688
32.476
32.32
32.216
32.122
31.981
31.798
31.611
31.452
31.362
31.439
31.97
33.369
35.733
38.655
41.432
43.469
44.535
44.722
44.316
43.624
42.915
42.259
41.65
41.14
40.678
40.196
39.723
39.373
39.187
39.177
39.318
39.548
39.792
39.913
39.821
39.498
39.008
38.401
37.747
37.13
36.563
36.003
35.442
34.938
34.55
34.315
34.195
34.117
34.091
34.13
34.182
34.227
34.265
34.308
34.306
34.258
34.164
34.007
33.801
33.591
33.447
33.33
33.194
33.04
32.906
32.759
32.565
32.338
32.066
31.772
31.589
31.766
32.732
34.739
37.538
40.453
42.808
44.265
44.819
44.653
44.035
43.225
42.433
41.769
41.233
40.759
40.284
39.821
39.456
39.245
39.197
39.286
39.452
39.638
39.774
39.752
39.517
39.103
38.581
37.996
37.418
36.852
36.299
35.749
35.281
34.937
34.668
34.434
34.195
33.986
33.849
33.788
33.793
33.812
33.819
33.798
33.734
33.625
33.499
33.393
33.28
33.157
33.006
32.81
32.611
32.446
32.271
32.057
31.796
31.551
31.386
31.301
31.416
32.103
33.697
36.164
39.026
41.582
43.296
44.032
44.052
43.663
43.048
42.358
41.711
41.169
40.718
40.268
39.756
39.262
38.904
38.77
38.88
39.166
39.481
39.702
39.752
39.589
39.223
38.664
38.005
37.388
36.863
36.364
35.876
35.426
35.021
34.633
34.279
34.035
33.898
33.812
33.733
33.644
33.564
33.495
33.435
33.39
33.409
33.468
33.511
33.463
33.321
33.121
32.913
32.724
32.564
32.41
32.242
32.021
31.735
31.46
31.238
31.161
31.485
32.614
34.71
37.45
40.177
42.294
43.565
44.079
44.033
43.622
43.007
42.304
41.646
41.122
40.69
40.257
39.767
39.299
39.024
39.02
39.206
39.468
39.689
39.821
39.824
39.713
39.505
39.138
38.617
37.995
37.387
36.836
36.335
35.902
35.542
35.234
34.955
34.697
34.494
34.32
34.199
34.168
34.195
34.187
34.091
33.959
33.846
33.749
33.677
33.599
33.461
33.285
33.128
32.993
32.848
32.669
32.476
32.28
32.038
31.742
31.498
31.615
32.576
34.626
37.448
40.35
42.668
44.029
44.46
44.249
43.688
42.993
42.265
41.584
40.993
40.467
39.946
39.458
39.089
38.875
38.848
38.998
39.277
39.596
39.819
39.851
39.71
39.438
39.042
38.509
37.868
37.218
36.632
36.109
35.593
35.087
34.688
34.424
34.229
34.068
33.913
33.763
33.673
33.659
33.696
33.719
33.684
33.576
33.397
33.173
32.954
32.799
32.734
32.697
32.591
32.428
32.22
32.007
31.79
31.541
31.296
31.195
31.546
32.76
34.951
37.762
40.517
42.608
43.764
44.112
43.891
43.305
42.569
41.871
41.292
40.835
40.383
39.821
39.24
38.798
38.62
38.682
38.907
39.214
39.501
39.649
39.582
39.294
38.834
38.263
37.638
37.058
36.558
36.071
35.585
35.12
34.689
34.34
34.095
33.911
33.762
33.661
33.609
33.558
33.482
33.398
33.316
33.258
33.175
32.999
32.755
32.513
32.276
32.054
31.899
31.792
31.676
31.523
31.319
31.077
30.845
30.667
30.576
30.748
31.607
33.505
36.237
39.144
41.57
43.138
43.802
43.744
43.259
42.645
42.059
41.503
40.962
40.412
39.802
39.144
38.531
38.143
38.051
38.151
38.332
38.56
38.755
38.863
38.831
38.573
38.083
37.43
36.681
35.919
35.25
34.752
34.404
34.076
33.693
33.327
33.073
32.955
32.949
33.007
33.036
32.996
32.915
32.779
32.626
32.494
32.401
32.292
32.126
31.925
31.756
31.647
31.556
31.44
31.276
31.1
30.924
30.697
30.421
30.331
30.986
32.831
35.734
39.055
41.945
43.873
44.732
44.685
44.049
43.192
42.351
41.616
41.032
40.54
40.023
39.456
38.89
38.449
38.27
38.358
38.609
38.963
39.297
39.498
39.484
39.218
38.742
38.15
37.497
36.828
36.197
35.628
35.126
34.679
34.31
34.038
33.852
33.688
33.552
33.499
33.526
33.582
33.631
33.609
33.493
33.333
33.156
32.986
32.825
32.664
32.509
32.331
32.138
31.928
31.671
31.363
31.051
30.804
30.878
31.769
33.841
36.865
40.094
42.735
44.368
44.987
44.822
44.199
43.37
42.519
41.775
41.173
40.627
40.083
39.498
38.927
38.535
38.402
38.517
38.775
39.027
39.194
39.202
39.035
38.684
38.15
37.531
36.915
36.303
35.683
35.11
34.64
34.264
33.987
33.794
33.671
33.619
33.572
33.501
33.42
33.377
33.371
33.358
33.319
33.247
33.138
32.956
32.688
32.357
32.025
31.759
31.594
31.482
31.384
31.319
31.352
31.812
33.215
35.682
38.745
41.624
43.718
44.825
45.084
44.798
44.257
43.667
43.074
42.426
41.734
41.045
40.388
39.786
39.315
39.08
39.091
39.298
39.605
39.85
39.88
39.693
39.352
38.877
38.308
37.644
36.907
36.187
35.554
35.009
34.557
34.21
33.968
33.812
33.719
33.651
33.589
33.513
33.404
33.276
33.148
33.062
33.049
33.047
33.01
32.898
32.705
32.454
32.148
31.821
31.505
31.282
31.35
32.117
33.942
36.682
39.719
42.302
43.948
44.607
44.491
43.919
43.186
42.436
41.746
41.183
40.699
40.194
39.615
38.998
38.495
38.231
38.252
38.488
38.779
38.978
39.023
38.9
38.611
38.148
37.56
36.932
36.365
35.887
35.428
34.969
34.565
34.254
34.022
33.884
33.85
33.843
33.826
33.796
33.775
33.788
33.79
33.729
33.632
33.496
33.259
32.919
32.567
32.232
31.947
31.736
31.789
32.502
34.156
36.619
39.345
41.688
43.237
43.899
43.869
43.44
42.859
42.264
41.699
41.16
40.609
39.974
39.284
38.656
38.235
38.122
38.289
38.601
38.898
39.075
39.082
38.871
38.454
37.919
37.322
36.703
36.138
35.59
35.076
34.612
34.2
33.878
33.654
33.546
33.515
33.525
33.517
33.472
33.422
33.363
33.284
33.178
33.025
32.845
32.646
32.399
32.079
31.738
31.445
31.275
31.523
32.641
34.769
37.503
40.192
42.248
43.387
43.704
43.48
42.94
42.261
41.612
41.068
40.59
40.091
39.519
38.88
38.279
37.902
37.798
37.927
38.227
38.526
38.682
38.631
38.36
37.902
37.343
36.75
36.138
35.534
34.966
34.483
34.113
33.855
33.69
33.56
33.456
33.366
33.303
33.244
33.184
33.108
33.016
32.964
32.982
32.997
32.923
32.728
32.436
32.091
31.748
31.447
31.247
31.36
32.225
34.056
36.595
39.282
41.528
42.981
43.603
43.575
43.114
42.498
41.936
41.501
41.165
40.794
40.312
39.721
39.057
38.453
38.112
38.079
38.266
38.556
38.756
38.776
38.585
38.235
37.798
37.277
36.709
36.141
35.608
35.143
34.723
34.346
34.041
33.841
33.689
33.596
33.581
33.575
33.51
33.41
33.313
33.241
33.17
33.067
32.919
32.771
32.633
32.481
32.267
31.975
31.644
31.346
31.13
31.113
31.678
33.251
35.755
38.635
41.194
42.975
43.87
44.056
43.775
43.256
42.628
42.005
41.449
40.991
40.594
40.135
39.546
38.915
38.428
38.191
38.203
38.407
38.66
38.834
38.837
38.61
38.187
37.62
36.955
36.258
35.629
35.114
34.723
34.396
34.1
33.861
33.696
33.578
33.495
33.435
33.384
33.338
33.291
33.258
33.231
33.163
33.054
32.947
32.835
32.682
32.441
32.156
31.899
31.714
31.579
31.445
31.268
31.094
31.287
32.409
34.629
37.503
40.321
42.464
43.676
44.018
43.711
43.05
42.32
41.673
41.183
40.808
40.442
39.969
39.352
38.72
38.228
38.016
38.114
38.39
38.669
38.829
38.845
38.709
38.383
37.89
37.295
36.655
36.01
35.436
34.984
34.618
34.307
34.032
33.764
33.541
33.441
33.465
33.485
33.409
33.311
33.248
33.181
33.092
32.971
32.81
32.617
32.41
32.225
32.105
32.023
31.928
31.81
31.658
31.51
31.383
31.242
31.081
30.969
31.031
31.684
33.426
36.184
39.25
41.882
43.631
44.417
44.436
43.97
43.268
42.559
41.931
41.401
40.969
40.613
40.239
39.729
39.123
38.616
38.378
38.4
38.565
38.76
38.857
38.779
38.566
38.22
37.767
37.262
36.725
36.168
35.621
35.108
34.686
34.367
34.113
33.904
33.757
33.679
33.658
33.683
33.703
33.689
33.611
33.432
33.191
32.979
32.817
32.644
32.482
32.324
32.134
31.912
31.682
31.474
31.321
31.232
31.171
31.095
31.006
30.926
30.858
30.775
30.704
30.806
31.604
33.621
36.664
39.901
42.514
44.154
44.891
44.929
44.478
43.743
42.907
42.134
41.518
41.063
40.735
40.409
39.962
39.452
39.054
38.877
38.885
39.018
39.183
39.258
39.184
38.947
38.574
38.093
37.53
36.932
36.354
35.776
35.227
34.784
34.443
34.203
34.059
33.987
33.937
33.893
33.865
33.835
33.77
33.664
33.565
33.511
33.443
33.325
33.138
32.884
32.621
32.373
32.136
31.909
31.716
31.571
31.482
31.445
31.432
31.391
31.288
31.135
30.981
30.863
30.767
30.76
31.245
32.789
35.485
38.76
41.792
44.017
45.256
45.584
45.226
44.487
43.609
42.773
42.085
41.555
41.146
40.783
40.35
39.851
39.419
39.152
39.093
39.211
39.398
39.54
39.601
39.52
39.216
38.755
38.221
37.678
37.124
36.524
35.94
35.458
35.073
34.747
34.46
34.213
34.022
33.887
33.805
33.782
33.789
33.759
33.65
33.51
33.383
33.268
33.127
32.972
32.803
32.572
32.298
32.044
31.857
31.723
31.605
31.495
31.361
31.251
31.172
31.105
31.071
31.081
31.075
31.001
30.882
30.805
31.104
32.397
35.01
38.45
41.778
44.291
45.744
46.263
46.111
45.501
44.568
43.517
42.588
41.916
41.463
41.094
40.705
40.245
39.769
39.388
39.206
39.262
39.451
39.645
39.741
39.656
39.347
38.896
38.377
37.788
37.19
36.588
36.001
35.483
35.033
34.628
34.268
33.987
33.793
33.673
33.612
33.616
33.648
33.649
33.576
33.442
33.316
33.187
33.027
32.834
32.625
32.401
32.208
32.063
31.942
31.763
31.536
31.302
31.13
31.049
31.031
31.04
31.018
30.952
30.832
30.67
30.505
30.468
30.923
32.51
35.441
39.109
42.53
45.001
46.339
46.677
46.273
45.427
44.398
43.359
42.474
41.805
41.318
40.883
40.408
39.95
39.59
39.369
39.31
39.379
39.521
39.707
39.835
39.776
39.487
39.043
38.491
37.877
37.256
36.623
35.95
35.324
34.832
34.451
34.125
33.886
33.751
33.646
33.57
33.528
33.526
33.523
33.493
33.433
33.306
33.152
32.994
32.822
32.572
32.231
31.889
31.63
31.467
31.333
31.18
31.02
30.845
30.661
30.494
30.361
30.285
30.265
30.268
30.292
30.601
31.895
34.721
38.616
42.433
45.21
46.601
46.799
46.233
45.294
44.215
43.163
42.22
41.428
40.809
40.271
39.742
39.235
38.872
38.752
38.871
39.143
39.491
39.807
39.946
39.85
39.503
38.962
38.303
37.586
36.853
36.126
35.411
34.721
34.02
33.281
32.54
31.875
31.309
30.841
30.5
30.338
30.44
30.804
31.363
32.026
32.699
33.307
33.755
34.025
34.139
34.087
33.934
33.733
33.507
33.264
32.976
32.599
32.184
31.806
31.476
31.171
30.89
30.662
30.518
30.652
31.598
33.953
37.503
41.304
44.388
46.273
46.972
46.776
46.028
44.944
43.674
42.394
41.264
40.385
39.668
39.067
38.666
38.579
38.869
39.481
40.235
40.941
41.413
41.516
41.241
40.72
40.079
39.386
38.642
37.894
37.174
36.534
36.005
35.548
35.198
34.962
34.781
34.629
34.544
34.58
34.7
34.794
34.739
34.547
34.317
34.101
33.846
33.504
33.118
32.78
32.504
32.198
31.837
31.48
31.163
30.88
30.739
31.048
32.427
35.188
38.762
42.134
44.522
45.69
45.806
45.178
44.076
42.783
41.471
40.28
39.44
39.063
39.012
39.001
38.903
38.781
38.744
38.934
39.338
39.788
40.107
40.201
40.039
39.646
39.074
38.435
37.835
37.272
36.691
36.138
35.642
35.19
34.791
34.457
34.226
34.119
34.089
34.082
34.084
34.056
33.963
33.814
33.671
33.546
33.377
33.168
32.943
32.71
32.44
32.114
31.742
31.375
31.01
30.666
30.557
31.236
33.301
36.608
40.211
43.112
44.852
45.455
45.227
44.488
43.477
42.388
41.372
40.51
39.762
39.01
38.226
37.535
37.182
37.261
37.651
38.147
38.562
38.802
38.887
38.805
38.502
37.973
37.287
36.563
35.87
35.228
34.673
34.24
33.914
33.601
33.327
33.108
32.945
32.864
32.881
33.017
33.223
33.423
33.597
33.69
33.637
33.419
33.051
32.633
32.319
32.288
32.84
34.305
36.648
39.347
41.706
43.296
44.01
43.963
43.388
42.483
41.448
40.464
39.606
38.842
38.064
37.284
36.648
36.326
36.384
36.783
37.401
38.024
38.435
38.557
38.404
38.005
37.452
36.816
36.131
35.445
34.832
34.311
33.827
33.432
33.146
32.909
32.74
32.651
32.647
32.687
32.749
32.783
32.751
32.633
32.455
32.287
32.253
32.704
34.053
36.332
39.056
41.461
42.995
43.575
43.469
42.973
42.228
41.294
40.214
39.153
38.195
37.308
36.5
35.908
35.712
35.968
36.579
37.321
37.945
38.314
38.4
38.19
37.721
37.091
36.411
35.749
35.094
34.407
33.714
33.106
32.652
32.34
32.147
32.068
32.096
32.187
32.273
32.311
32.322
32.306
32.238
32.139
32.051
32.181
32.938
34.66
37.204
39.971
42.277
43.681
44.065
43.665
42.88
41.931
40.9
39.873
38.861
37.861
36.923
36.164
35.721
35.708
36.147
36.901
37.744
38.448
38.804
38.783
38.401
37.73
36.946
36.239
35.624
35.031
34.46
33.892
33.319
32.797
32.412
32.243
32.284
32.417
32.526
32.579
32.553
32.499
32.5
32.52
32.455
32.336
32.382
33.015
34.584
37.002
39.677
41.882
43.215
43.648
43.402
42.723
41.742
40.595
39.397
38.237
37.179
36.202
35.424
35.048
35.189
35.83
36.768
37.736
38.475
38.821
38.714
38.243
37.577
36.838
36.066
35.298
34.615
34.02
33.462
32.993
32.631
32.393
32.269
32.195
32.143
32.172
32.269
32.365
32.405
32.376
32.302
32.245
32.428
33.289
35.127
37.692
40.292
42.276
43.358
43.557
43.113
42.28
41.272
40.219
39.184
38.164
37.098
36.043
35.131
34.616
34.712
35.393
36.477
37.588
38.401
38.769
38.685
38.271
37.685
37.026
36.275
35.453
34.677
34.044
33.573
33.236
32.924
32.64
32.484
32.448
32.47
32.512
32.543
32.528
32.473
32.374
32.391
32.921
34.414
36.891
39.784
42.309
43.987
44.703
44.547
43.771
42.703
41.548
40.404
39.331
38.317
37.32
36.372
35.63
35.31
35.571
36.325
37.319
38.236
38.812
38.99
38.823
38.342
37.614
36.77
35.927
35.134
34.43
33.827
33.316
32.873
32.524
32.303
32.227
32.298
32.431
32.525
32.494
32.357
32.186
32.121
32.509
33.877
36.381
39.477
42.336
44.32
45.209
45.166
44.489
43.476
42.334
41.225
40.248
39.423
38.719
38.045
37.427
36.956
36.741
36.888
37.392
38.059
38.595
38.819
38.721
38.338
37.734
37.025
36.279
35.562
34.888
34.245
33.701
33.293
32.965
32.716
32.577
32.544
32.627
32.788
32.992
33.155
33.182
33.083
32.886
32.627
32.359
32.218
32.589
33.984
36.547
39.727
42.672
44.761
45.763
45.798
45.191
44.28
43.342
42.551
41.971
41.545
41.107
40.513
39.814
39.145
38.665
38.502
38.653
38.979
39.265
39.371
39.257
38.934
38.444
37.827
37.158
36.496
35.859
35.242
34.664
34.186
33.818
33.499
33.213
32.999
32.855
32.773
32.723
32.706
32.719
32.738
32.75
32.742
32.727
32.675
32.533
32.265
31.898
31.474
31.095
30.879
31.083
32.251
34.757
38.229
41.693
44.255
45.553
45.756
45.237
44.399
43.553
42.824
42.241
41.753
41.292
40.792
40.206
39.558
38.993
38.644
38.525
38.571
38.68
38.757
38.727
38.579
38.298
37.865
37.239
36.483
35.728
35.047
34.447
33.953
33.56
33.237
32.983
32.832
32.759
32.723
32.731
32.762
32.749
32.652
32.494
32.35
32.253
32.163
32.049
31.926
31.8
31.652
31.483
31.284
31.069
30.817
30.559
30.368
30.307
30.679
32.111
34.861
38.361
41.626
43.93
45.107
45.356
44.937
44.097
43.113
42.249
41.64
41.221
40.848
40.404
39.832
39.192
38.675
38.429
38.478
38.681
38.852
38.89
38.756
38.458
38.028
37.538
37.031
36.507
35.945
35.365
34.816
34.372
33.987
33.647
33.418
33.312
33.235
33.16
33.105
33.052
32.973
32.894
32.866
32.871
32.845
32.763
32.585
32.317
32.038
31.832
31.686
31.549
31.401
31.248
31.081
30.882
30.733
30.641
30.543
30.42
30.552
31.552
33.89
37.234
40.639
43.267
44.71
45.046
44.641
43.852
42.957
42.104
41.402
40.889
40.473
40.009
39.445
38.838
38.344
38.108
38.172
38.448
38.807
39.083
39.14
38.932
38.495
37.895
37.217
36.583
36.011
35.473
34.916
34.354
33.878
33.53
33.298
33.163
33.073
32.979
32.888
32.828
32.862
32.981
33.058
33.008
32.854
32.632
32.366
32.122
31.953
31.831
31.668
31.463
31.233
31.038
30.917
30.881
30.833
30.686
30.505
30.344
30.247
30.408
31.331
33.555
36.893
40.393
43.128
44.665
45.076
44.691
43.892
42.943
41.952
40.977
40.094
39.365
38.72
38.098
37.567
37.284
37.347
37.705
38.17
38.591
38.869
38.946
38.802
38.454
37.96
37.35
36.701
36.053
35.436
34.832
34.279
33.867
33.588
33.358
33.13
32.965
32.93
33.023
33.149
33.226
33.241
33.248
33.244
33.206
33.102
32.926
32.736
32.532
32.261
31.932
31.654
31.498
31.403
31.298
31.185
31.084
30.992
30.882
30.74
30.571
30.464
30.742
32.047
34.747
38.298
41.625
43.883
44.891
44.944
44.405
43.532
42.453
41.261
40.038
38.869
37.798
36.823
35.994
35.455
35.401
35.945
36.925
37.995
38.836
39.303
39.396
39.15
38.602
37.859
37.079
36.307
35.559
34.877
34.27
33.704
33.216
32.875
32.696
32.634
32.607
32.599
32.615
32.698
32.825
32.953
33.076
33.175
33.215
33.146
32.98
32.783
32.609
32.463
32.309
32.116
31.883
31.616
31.331
31.051
30.852
30.883
31.545
33.436
36.61
40.228
43.2
44.924
45.419
45.094
44.314
43.294
42.137
40.909
39.661
38.381
37.104
35.94
35.047
34.628
34.832
35.653
36.847
38.034
38.934
39.41
39.434
39.089
38.497
37.762
36.962
36.124
35.28
34.5
33.868
33.399
33.013
32.692
32.43
32.283
32.282
32.386
32.484
32.551
32.624
32.729
32.836
32.907
32.958
33.002
33.003
32.894
32.674
32.391
32.085
31.782
31.602
31.968
33.512
36.389
39.862
42.867
44.791
45.595
45.507
44.824
43.838
42.714
41.508
40.295
39.136
37.978
36.752
35.602
34.857
34.761
35.337
36.453
37.759
38.831
39.445
39.569
39.319
38.838
38.21
37.455
36.599
35.697
34.856
34.166
33.677
33.314
32.973
32.638
32.385
32.304
32.341
32.422
32.524
32.656
32.821
32.975
33.077
33.11
33.077
32.945
32.705
32.438
32.172
31.986
32.294
33.766
36.606
40.117
43.259
45.33
46.24
46.258
45.691
44.808
43.736
42.561
41.364
40.223
39.207
38.3
37.475
36.807
36.465
36.604
37.189
38.051
38.934
39.574
39.83
39.693
39.202
38.471
37.636
36.839
36.101
35.372
34.63
33.944
33.403
33.005
32.703
32.483
32.345
32.313
32.361
32.466
32.628
32.817
32.967
33.013
32.977
32.871
32.743
32.606
32.435
32.197
31.911
31.726
32.153
33.912
37.105
40.864
44.069
46.105
46.905
46.741
46.013
45.011
43.906
42.795
41.8
41.014
40.388
39.766
39.117
38.533
38.193
38.228
38.553
39.0
39.425
39.705
39.747
39.51
39.014
38.37
37.636
36.852
36.088
35.387
34.747
34.19
33.743
33.373
33.076
32.833
32.667
32.587
32.58
32.611
32.668
32.718
32.734
32.704
32.662
32.623
32.558
32.443
32.278
32.097
31.878
31.61
31.323
31.066
30.857
30.722
30.905
32.021
34.668
38.527
42.498
45.501
47.087
47.413
46.897
45.983
44.936
43.873
42.881
41.996
41.263
40.697
40.156
39.585
39.117
38.883
38.877
39.05
39.297
39.518
39.642
39.577
39.274
38.791
38.18
37.461
36.696
35.974
35.306
34.697
34.186
33.794
33.511
33.263
33.06
32.931
32.904
32.921
32.91
32.929
32.969
32.938
32.816
32.668
32.542
32.457
32.369
32.259
32.07
31.823
31.605
31.393
31.174
30.975
30.796
30.707
31.023
32.452
35.413
39.37
43.177
45.853
47.108
47.193
46.579
45.651
44.62
43.586
42.646
41.857
41.217
40.66
40.092
39.511
39.069
38.883
38.96
39.211
39.5
39.714
39.755
39.588
39.21
38.644
37.991
37.345
36.682
36.006
35.363
34.762
34.221
33.786
33.46
33.246
33.103
32.994
32.909
32.875
32.892
32.946
32.993
32.979
32.897
32.79
32.664
32.533
32.441
32.343
32.177
31.925
31.65
31.379
31.147
30.975
30.822
30.72
30.919
32.063
34.672
38.379
42.134
44.954
46.454
46.769
46.286
45.354
44.252
43.192
42.247
41.434
40.718
39.982
39.207
38.505
38.062
38.018
38.366
38.907
39.405
39.707
39.753
39.578
39.196
38.626
37.949
37.225
36.469
35.725
35.07
34.534
34.094
33.726
33.451
33.278
33.172
33.087
32.984
32.886
32.84
32.829
32.835
32.862
32.869
32.788
32.642
32.521
32.404
32.24
32.04
31.87
31.767
31.709
31.612
31.41
31.116
30.805
30.537
30.48
31.048
32.825
35.933
39.65
42.954
45.142
46.083
46.035
45.38
44.404
43.269
42.058
40.874
39.803
38.814
37.857
37.011
36.459
36.383
36.798
37.55
38.438
39.232
39.724
39.848
39.676
39.271
38.651
37.848
36.937
36.024
35.259
34.677
34.207
33.78
33.344
32.942
32.667
32.612
32.74
32.935
33.077
33.092
33.054
33.06
33.127
33.222
33.291
33.325
33.266
33.043
32.724
32.406
32.096
31.794
31.514
31.336
31.631
33.025
35.75
39.16
42.232
44.257
45.052
44.858
44.082
43.042
41.911
40.722
39.526
38.392
37.301
36.258
35.379
34.862
34.94
35.656
36.794
38.001
38.934
39.483
39.658
39.508
39.085
38.431
37.625
36.778
35.975
35.247
34.609
34.073
33.594
33.187
32.882
32.639
32.425
32.317
32.372
32.537
32.711
32.83
32.852
32.81
32.768
32.751
32.692
32.537
32.333
32.138
31.938
31.891
32.497
34.379
37.478
40.926
43.729
45.385
45.922
45.629
44.823
43.739
42.516
41.229
39.978
38.811
37.757
36.823
36.039
35.528
35.459
35.954
36.924
38.076
39.045
39.555
39.544
39.139
38.495
37.713
36.857
36.002
35.224
34.505
33.817
33.186
32.69
32.306
32.065
31.965
31.949
31.937
31.962
32.07
32.224
32.416
32.58
32.659
32.64
32.55
32.387
32.139
31.878
31.658
31.701
32.592
34.793
38.054
41.502
44.257
45.921
46.505
46.292
45.598
44.624
43.516
42.398
41.379
40.493
39.699
38.955
38.311
37.894
37.782
37.995
38.469
39.011
39.432
39.654
39.623
39.331
38.814
38.119
37.298
36.434
35.621
34.91
34.285
33.75
33.339
33.036
32.788
32.582
32.479
32.452
32.473
32.531
32.607
32.689
32.712
32.683
32.639
32.553
32.443
32.34
32.237
32.066
31.814
31.508
31.183
30.973
31.162
32.303
34.859
38.486
42.21
45.084
46.725
47.227
46.913
46.112
45.056
43.952
42.928
42.075
41.384
40.745
40.106
39.474
38.93
38.611
38.622
38.926
39.33
39.635
39.739
39.616
39.291
38.804
38.194
37.521
36.818
36.111
35.402
34.717
34.115
33.617
33.231
32.949
32.784
32.707
32.686
32.682
32.699
32.731
32.725
32.698
32.666
32.597
32.485
32.374
32.27
32.139
32.021
31.888
31.657
31.354
31.055
30.771
30.523
30.566
31.478
33.857
37.536
41.469
44.567
46.336
46.888
46.578
45.792
44.837
43.859
42.919
42.064
41.291
40.561
39.907
39.36
38.953
38.686
38.644
38.882
39.29
39.685
39.942
39.96
39.674
39.112
38.39
37.658
36.97
36.346
35.784
35.271
34.789
34.328
33.902
33.572
33.38
33.294
33.267
33.281
33.266
33.234
33.223
33.242
33.259
33.23
33.104
32.924
32.741
32.608
32.493
32.325
32.078
31.772
31.462
31.176
31.001
31.165
32.159
34.488
37.918
41.486
44.238
45.735
46.103
45.696
44.921
44.032
43.059
42.077
41.158
40.295
39.451
38.647
38.016
37.723
37.795
38.136
38.606
39.055
39.345
39.414
39.284
38.979
38.513
37.874
37.131
36.385
35.687
35.104
34.633
34.18
33.723
33.286
32.985
32.879
32.862
32.859
32.803
32.729
32.706
32.734
32.739
32.714
32.66
32.566
32.456
32.322
32.151
31.962
31.769
31.555
31.265
30.933
30.635
30.503
30.953
32.607
35.638
39.331
42.619
44.796
45.701
45.58
44.844
43.834
42.726
41.639
40.622
39.647
38.671
37.701
36.878
36.423
36.47
37.035
37.905
38.748
39.315
39.55
39.499
39.185
38.65
37.94
37.15
36.37
35.67
35.072
34.556
34.062
33.565
33.126
32.849
32.79
32.914
33.071
33.183
33.228
33.256
33.3
33.347
33.409
33.456
33.409
33.276
33.099
32.851
32.513
32.092
31.682
31.58
32.256
34.067
36.817
39.825
42.364
43.998
44.678
44.603
43.982
43.045
41.969
40.85
39.727
38.613
37.57
36.711
36.159
36.013
36.348
37.115
38.098
38.99
39.569
39.758
39.579
39.14
38.556
37.891
37.2
36.513
35.827
35.189
34.639
34.198
33.856
33.581
33.412
33.372
33.428
33.577
33.789
33.967
34.062
34.112
34.144
34.107
33.93
33.649
33.38
33.26
33.672
35.03
37.258
39.815
42.034
43.434
43.913
43.659
42.983
42.096
41.108
40.088
39.052
38.0
36.962
36.047
35.459
35.365
35.838
36.731
37.772
38.657
39.197
39.348
39.201
38.843
38.324
37.697
36.985
36.264
35.587
34.973
34.43
33.999
33.704
33.538
33.513
33.612
33.748
33.854
33.911
33.913
33.848
33.753
33.672
33.625
33.783
34.462
35.895
37.927
40.103
41.889
42.958
43.291
43.02
42.331
41.413
40.436
39.508
38.656
37.843
37.067
36.391
35.974
35.965
36.396
37.144
37.959
38.61
38.98
39.022
38.82
38.453
37.946
37.359
36.774
36.21
35.636
35.081
34.626
34.325
34.147
34.046
33.997
34.021
34.11
34.191
34.214
34.136
34.018
33.919
33.884
34.127
35.001
36.667
38.839
40.983
42.56
43.297
43.273
42.732
41.97
41.227
40.6
40.024
39.481
38.969
38.468
38.05
37.798
37.72
37.812
38.099
38.526
38.909
39.089
39.003
38.72
38.306
37.781
37.223
36.667
36.125
35.648
35.312
35.109
34.963
34.837
34.707
34.542
34.387
34.327
34.425
34.596
34.729
34.754
34.664
34.514
34.282
33.988
33.693
33.441
33.388
33.882
35.266
37.442
39.819
41.763
42.902
43.222
42.974
42.42
41.757
41.107
40.622
40.35
40.15
39.866
39.483
39.044
38.641
38.398
38.333
38.438
38.633
38.805
38.87
38.76
38.466
38.039
37.571
37.117
36.682
36.27
35.884
35.579
35.381
35.227
35.066
34.9
34.756
34.639
34.548
34.471
34.377
34.306
34.313
34.312
34.263
34.19
34.087
33.964
33.801
33.637
33.472
33.271
33.042
32.815
32.688
33.037
34.273
36.419
38.962
41.195
42.599
43.082
42.887
42.362
41.758
41.235
40.861
40.608
40.4
40.138
39.766
39.276
38.771
38.453
38.43
38.587
38.756
38.853
38.815
38.627
38.326
37.955
37.537
37.11
36.68
36.291
35.985
35.736
35.491
35.242
35.031
34.869
34.79
34.803
34.842
34.826
34.788
34.746
34.654
34.504
34.329
34.175
34.047
33.949
33.855
33.738
33.556
33.312
33.089
32.943
32.844
32.732
32.613
32.614
33.063
34.352
36.501
38.979
41.064
42.305
42.657
42.351
41.751
41.187
40.782
40.502
40.307
40.115
39.796
39.345
38.842
38.405
38.173
38.166
38.307
38.475
38.581
38.559
38.398
38.121
37.766
37.364
36.939
36.509
36.107
35.729
35.38
35.096
34.853
34.633
34.444
34.351
34.362
34.374
34.366
34.316
34.237
34.16
34.067
33.942
33.81
33.692
33.551
33.369
33.215
33.092
32.979
32.884
32.787
32.623
32.373
32.111
31.932
31.983
32.561
33.972
36.113
38.486
40.507
41.757
42.147
41.843
41.165
40.445
39.88
39.52
39.261
38.973
38.616
38.149
37.679
37.344
37.208
37.321
37.621
37.958
38.192
38.244
38.092
37.77
37.307
36.777
36.302
35.934
35.637
35.361
35.088
34.841
34.636
34.508
34.421
34.326
34.219
34.173
34.187
34.228
34.264
34.233
34.119
33.983
33.857
33.738
33.652
33.591
33.53
33.424
33.202
32.895
32.595
32.348
32.146
32.013
32.091
32.76
34.375
36.732
39.146
41.023
42.075
42.301
41.922
41.285
40.609
40.006
39.53
39.16
38.823
38.435
37.977
37.544
37.281
37.28
37.505
37.853
38.209
38.437
38.435
38.218
37.856
37.434
36.994
36.542
36.054
35.547
35.072
34.686
34.452
34.356
34.325
34.25
34.152
34.052
33.966
33.928
33.933
33.983
34.028
33.956
33.789
33.603
33.495
33.449
33.368
33.167
32.858
32.512
32.208
32.021
32.075
32.632
33.987
36.077
38.467
40.669
42.269
43.043
43.054
42.507
41.659
40.794
40.107
39.652
39.35
39.027
38.559
38.009
37.585
37.442
37.585
37.935
38.369
38.681
38.778
38.682
38.395
37.943
37.342
36.684
36.115
35.649
35.228
34.829
34.509
34.29
34.139
33.993
33.849
33.753
33.716
33.741
33.817
33.837
33.75
33.63
33.531
33.434
33.354
33.29
33.196
32.988
32.645
32.269
31.96
31.815
32.115
33.33
35.549
38.262
40.774
42.597
43.553
43.741
43.378
42.739
42.038
41.341
40.733
40.232
39.796
39.308
38.716
38.132
37.749
37.725
38.033
38.485
38.871
39.073
39.023
38.732
38.303
37.778
37.224
36.693
36.144
35.585
35.088
34.714
34.461
34.292
34.175
34.103
34.059
34.042
34.037
34.014
33.981
33.943
33.863
33.734
33.622
33.528
33.362
33.108
32.861
32.639
32.404
32.339
32.872
34.367
36.697
39.248
41.361
42.713
43.288
43.2
42.677
41.935
41.165
40.522
40.042
39.655
39.222
38.677
38.064
37.549
37.288
37.332
37.604
37.932
38.187
38.306
38.226
37.932
37.441
36.847
36.268
35.765
35.357
34.975
34.588
34.258
34.008
33.786
33.565
33.418
33.4
33.471
33.559
33.58
33.482
33.335
33.245
33.268
33.357
33.39
33.257
32.975
32.634
32.312
32.086
32.146
32.884
34.527
36.854
39.274
41.226
42.418
42.82
42.623
42.113
41.545
41.021
40.514
40.051
39.651
39.255
38.795
38.291
37.834
37.563
37.577
37.822
38.138
38.379
38.417
38.249
37.926
37.509
37.045
36.541
36.032
35.541
35.093
34.706
34.379
34.174
34.073
34.008
33.977
33.948
33.927
33.941
33.946
33.893
33.789
33.662
33.531
33.413
33.362
33.352
33.299
33.177
33.002
32.79
32.569
32.359
32.374
33.05
34.678
37.058
39.599
41.653
42.833
43.161
42.916
42.32
41.565
40.83
40.271
39.936
39.779
39.616
39.267
38.785
38.35
38.101
38.073
38.202
38.398
38.536
38.54
38.394
38.079
37.645
37.153
36.646
36.161
35.714
35.335
35.015
34.719
34.478
34.301
34.153
34.061
34.011
33.965
33.908
33.848
33.779
33.699
33.595
33.436
33.267
33.144
33.039
32.907
32.724
32.496
32.27
32.067
31.953
31.874
31.734
31.57
31.64
32.459
34.364
37.04
39.753
41.824
42.878
42.98
42.496
41.782
41.039
40.358
39.788
39.335
38.902
38.458
38.066
37.771
37.573
37.49
37.578
37.8
38.042
38.242
38.305
38.162
37.841
37.385
36.879
36.414
35.96
35.52
35.093
34.649
34.259
34.016
33.889
33.817
33.762
33.742
33.757
33.78
33.807
33.808
33.735
33.589
33.42
33.3
33.214
33.112
33.002
32.93
32.866
32.764
32.574
32.302
32.014
31.783
31.691
31.968
33.037
35.091
37.733
40.241
42.057
42.951
43.024
42.547
41.768
40.854
39.959
39.174
38.526
37.978
37.475
37.029
36.727
36.654
36.872
37.296
37.756
38.138
38.355
38.402
38.27
37.948
37.483
36.934
36.368
35.831
35.379
34.998
34.63
34.287
34.01
33.792
33.645
33.601
33.638
33.711
33.759
33.748
33.7
33.649
33.634
33.606
33.516
33.389
33.288
33.173
32.976
32.74
32.534
32.342
32.143
31.925
31.699
31.531
31.563
32.201
33.86
36.41
39.129
41.315
42.618
43.084
42.887
42.25
41.375
40.397
39.388
38.415
37.525
36.706
35.989
35.524
35.455
35.826
36.567
37.459
38.241
38.74
38.893
38.732
38.342
37.846
37.313
36.733
36.128
35.555
35.062
34.634
34.237
33.863
33.556
33.338
33.221
33.213
33.259
33.323
33.395
33.445
33.474
33.473
33.475
33.464
33.415
33.305
33.156
33.016
32.883
32.712
32.477
32.201
31.945
31.743
31.632
31.94
33.24
35.691
38.659
41.214
42.806
43.395
43.233
42.634
41.769
40.713
39.515
38.226
36.93
35.716
34.672
33.902
33.596
33.961
34.999
36.386
37.679
38.544
38.913
38.864
38.519
38.034
37.509
36.931
36.308
35.658
35.015
34.374
33.791
33.359
33.094
32.92
32.774
32.637
32.521
32.48
32.581
32.818
33.063
33.21
33.273
33.313
33.333
33.329
33.267
33.132
32.94
32.699
32.455
32.203
31.957
31.792
31.934
32.983
35.298
38.376
41.223
43.095
43.832
43.715
43.098
42.207
41.133
39.885
38.521
37.08
35.601
34.185
33.096
32.593
32.882
34.016
35.717
37.453
38.746
39.367
39.373
39.015
38.457
37.829
37.203
36.579
35.941
35.271
34.583
33.917
33.314
32.883
32.618
32.426
32.318
32.29
32.29
32.357
32.534
32.781
33.064
33.3
33.409
33.403
33.368
33.347
33.291
33.135
32.886
32.575
32.27
32.112
32.537
34.095
36.779
39.8
42.235
43.596
43.945
43.559
42.726
41.649
40.446
39.155
37.781
36.307
34.775
33.325
32.274
31.971
32.578
34.002
35.899
37.74
39.069
39.742
39.838
39.507
38.906
38.157
37.364
36.592
35.838
35.13
34.483
33.86
33.284
32.828
32.525
32.345
32.288
32.33
32.429
32.564
32.724
32.9
33.073
33.253
33.415
33.503
33.524
33.472
33.294
33.027
32.748
32.568
32.798
33.968
36.326
39.303
41.912
43.502
44.002
43.747
43.106
42.249
41.175
39.831
38.235
36.505
34.853
33.474
32.502
32.108
32.434
33.558
35.322
37.26
38.841
39.751
39.969
39.691
39.179
38.581
37.925
37.181
36.388
35.594
34.834
34.132
33.511
33.015
32.679
32.501
32.407
32.353
32.39
32.518
32.715
32.944
33.153
33.369
33.585
33.729
33.745
33.634
33.459
33.257
33.065
33.124
34.013
36.121
39.009
41.732
43.574
44.331
44.199
43.528
42.596
41.5
40.238
38.809
37.232
35.619
34.11
32.914
32.351
32.624
33.738
35.482
37.421
39.037
40.015
40.334
40.148
39.639
38.999
38.311
37.557
36.746
35.909
35.112
34.448
33.882
33.392
33.033
32.863
32.817
32.815
32.849
32.969
33.173
33.421
33.681
33.906
34.059
34.115
34.082
33.966
33.793
33.825
34.615
36.508
39.144
41.695
43.481
44.241
44.144
43.525
42.676
41.625
40.351
38.873
37.225
35.525
34.023
33.022
32.712
33.167
34.348
36.054
37.873
39.335
40.159
40.355
40.102
39.594
38.959
38.266
37.516
36.746
35.994
35.283
34.659
34.141
33.726
33.423
33.233
33.137
33.098
33.163
33.36
33.681
34.061
34.412
34.618
34.628
34.488
34.287
34.144
34.311
35.246
37.183
39.702
41.999
43.515
44.161
44.075
43.476
42.533
41.343
40.027
38.658
37.259
35.856
34.611
33.781
33.597
34.228
35.594
37.362
39.014
40.11
40.562
40.551
40.276
39.774
39.093
38.34
37.576
36.827
36.13
35.477
34.925
34.502
34.186
33.988
33.914
33.974
34.121
34.281
34.481
34.742
35.027
35.202
35.238
35.205
35.102
34.929
34.952
35.72
37.481
39.782
41.838
43.124
43.602
43.464
42.862
41.974
40.935
39.779
38.563
37.334
36.177
35.225
34.692
34.771
35.535
36.824
38.305
39.526
40.234
40.402
40.147
39.628
38.961
38.237
37.539
36.921
36.358
35.807
35.296
34.863
34.562
34.388
34.308
34.355
34.499
34.715
34.939
35.121
35.2
35.224
35.227
35.191
35.104
34.933
34.758
34.871
35.668
37.254
39.237
41.021
42.189
42.573
42.281
41.6
40.742
39.837
38.902
37.878
36.776
35.74
35.007
34.847
35.345
36.305
37.421
38.422
39.101
39.386
39.315
39.027
38.605
38.08
37.5
36.906
36.319
35.811
35.424
35.12
34.875
34.708
34.607
34.579
34.666
34.849
35.038
35.172
35.279
35.333
35.306
35.231
35.158
35.057
34.879
34.697
34.763
35.444
36.897
38.796
40.588
41.805
42.263
42.035
41.378
40.496
39.507
38.521
37.603
36.783
36.043
35.498
35.372
35.795
36.663
37.704
38.597
39.187
39.429
39.323
38.944
38.39
37.762
37.199
36.733
36.328
35.955
35.593
35.264
34.962
34.762
34.715
34.745
34.811
34.935
35.089
35.223
35.339
35.397
35.389
35.331
35.223
35.015
34.726
34.445
34.277
34.457
35.299
36.892
38.87
40.615
41.662
41.955
41.662
40.971
40.081
39.199
38.38
37.549
36.685
35.888
35.403
35.423
35.989
36.896
37.804
38.526
38.998
39.19
39.067
38.713
38.238
37.712
37.169
36.679
36.24
35.865
35.535
35.23
34.988
34.876
34.92
35.043
35.177
35.3
35.417
35.47
35.451
35.389
35.325
35.275
35.206
35.049
34.822
34.583
34.354
34.251
34.604
35.756
37.602
39.61
41.188
42.025
42.149
41.762
41.081
40.24
39.324
38.371
37.425
36.618
36.076
35.92
36.204
36.888
37.776
38.595
39.141
39.382
39.425
39.332
39.048
38.542
37.878
37.172
36.554
36.111
35.83
35.633
35.405
35.173
35.009
34.961
35.005
35.097
35.225
35.356
35.435
35.429
35.363
35.265
35.114
34.919
34.697
34.462
34.222
34.008
33.946
34.391
35.648
37.57
39.687
41.394
42.339
42.548
42.182
41.39
40.334
39.235
38.262
37.443
36.739
36.194
35.986
36.217
36.868
37.771
38.624
39.22
39.49
39.448
39.18
38.766
38.245
37.674
37.11
36.581
36.094
35.691
35.417
35.27
35.156
35.052
35.005
35.022
35.098
35.235
35.387
35.491
35.479
35.357
35.228
35.113
34.98
34.784
34.53
34.266
34.0
33.846
34.097
35.138
37.028
39.304
41.303
42.561
42.974
42.679
41.947
41.007
39.993
38.993
38.111
37.389
36.823
36.512
36.545
36.98
37.731
38.571
39.248
39.628
39.692
39.494
39.098
38.548
37.938
37.329
36.756
36.267
35.868
35.519
35.207
34.997
34.896
34.869
34.908
35.009
35.114
35.188
35.239
35.256
35.226
35.129
34.979
34.8
34.624
34.422
34.186
33.937
33.706
33.607
33.99
35.244
37.356
39.788
41.78
42.883
43.055
42.56
41.689
40.661
39.649
38.7
37.828
37.06
36.467
36.208
36.393
36.948
37.699
38.468
39.046
39.335
39.354
39.09
38.582
37.967
37.306
36.629
36.061
35.627
35.285
35.009
34.813
34.693
34.61
34.581
34.604
34.665
34.763
34.886
34.961
34.911
34.796
34.707
34.64
34.528
34.373
34.188
33.949
33.689
33.45
33.243
33.125
33.332
34.252
36.095
38.535
40.878
42.531
43.257
43.171
42.525
41.516
40.344
39.205
38.212
37.433
36.844
36.489
36.436
36.743
37.35
38.112
38.791
39.224
39.379
39.241
38.879
38.368
37.783
37.171
36.556
35.983
35.466
35.051
34.791
34.678
34.663
34.704
34.771
34.825
34.851
34.917
35.034
35.136
35.176
35.136
34.978
34.73
34.495
34.298
34.116
33.917
33.695
33.451
33.185
32.91
32.731
32.888
33.825
35.774
38.383
40.916
42.758
43.624
43.566
42.833
41.731
40.511
39.389
38.483
37.757
37.148
36.714
36.606
36.918
37.598
38.429
39.152
39.589
39.73
39.595
39.209
38.631
37.927
37.204
36.559
36.026
35.625
35.332
35.089
34.873
34.741
34.69
34.725
34.82
34.936
35.033
35.09
35.119
35.117
35.075
34.967
34.81
34.615
34.425
34.252
34.048
33.811
33.576
33.382
33.255
33.15
33.012
33.067
33.815
35.594
38.172
40.819
42.854
43.871
43.866
43.152
42.09
40.905
39.76
38.759
37.931
37.278
36.863
36.766
37.033
37.649
38.455
39.256
39.866
40.129
39.975
39.529
38.917
38.206
37.493
36.854
36.344
35.934
35.544
35.156
34.878
34.76
34.779
34.897
35.023
35.135
35.209
35.212
35.146
35.071
34.96
34.796
34.6
34.386
34.165
33.967
33.807
33.666
33.483
33.29
33.116
32.927
32.726
32.664
33.087
34.451
36.784
39.514
41.89
43.425
43.974
43.648
42.721
41.523
40.319
39.225
38.287
37.537
36.981
36.681
36.765
37.266
37.989
38.715
39.326
39.696
39.755
39.474
38.93
38.262
37.58
36.929
36.354
35.851
35.404
35.04
34.807
34.703
34.698
34.73
34.727
34.725
34.826
35.003
35.095
35.031
34.881
34.725
34.551
34.323
34.091
33.921
33.797
33.648
33.437
33.185
32.953
32.785
32.658
32.57
32.671
33.412
35.201
37.851
40.648
42.84
44.016
44.147
43.489
42.372
41.13
39.937
38.864
37.967
37.272
36.793
36.611
36.812
37.381
38.166
38.94
39.494
39.725
39.604
39.201
38.611
37.928
37.221
36.549
35.949
35.431
35.012
34.69
34.475
34.401
34.417
34.467
34.521
34.597
34.705
34.793
34.803
34.748
34.652
34.511
34.337
34.152
33.995
33.872
33.723
33.51
33.251
33.043
32.912
32.777
32.632
32.496
32.502
33.111
34.755
37.348
40.22
42.573
43.905
44.145
43.561
42.532
41.333
40.173
39.196
38.427
37.774
37.21
36.905
37.025
37.502
38.176
38.871
39.392
39.681
39.71
39.469
38.983
38.329
37.593
36.826
36.084
35.399
34.892
34.614
34.524
34.567
34.644
34.71
34.767
34.82
34.888
34.944
35.017
35.09
35.111
35.06
34.915
34.691
34.434
34.216
34.03
33.861
33.695
33.494
33.245
33.011
32.882
32.85
32.973
33.659
35.328
37.802
40.437
42.498
43.597
43.788
43.318
42.431
41.315
40.133
39.061
38.201
37.568
37.179
37.067
37.296
37.845
38.576
39.307
39.832
40.059
39.913
39.388
38.635
37.819
37.003
36.199
35.488
34.969
34.673
34.54
34.437
34.289
34.169
34.166
34.304
34.53
34.742
34.861
34.891
34.804
34.647
34.461
34.225
33.979
33.77
33.622
33.536
33.425
33.236
32.986
32.757
32.6
32.504
32.512
32.864
33.98
36.046
38.693
41.189
42.928
43.663
43.457
42.583
41.404
40.194
39.126
38.298
37.682
37.194
36.856
36.816
37.164
37.832
38.621
39.282
39.669
39.708
39.42
38.902
38.251
37.543
36.881
36.314
35.862
35.496
35.186
34.955
34.836
34.818
34.887
34.994
35.08
35.135
35.192
35.249
35.282
35.233
35.067
34.843
34.618
34.421
34.239
34.011
33.729
33.444
33.199
32.974
32.725
32.493
32.393
32.701
33.825
35.927
38.643
41.221
43.001
43.713
43.503
42.663
41.486
40.264
39.175
38.318
37.678
37.195
36.893
36.913
37.295
37.945
38.657
39.227
39.537
39.587
39.417
39.04
38.439
37.698
36.936
36.235
35.704
35.378
35.171
35.03
34.941
34.917
34.941
34.983
35.039
35.157
35.298
35.377
35.337
35.182
34.984
34.776
34.593
34.465
34.321
34.111
33.843
33.555
33.267
33.006
32.788
32.617
32.537
32.765
33.678
35.477
37.899
40.328
42.14
43.026
43.0
42.28
41.178
39.986
38.919
38.096
37.461
36.947
36.591
36.518
36.784
37.361
38.064
38.667
39.026
39.075
38.842
38.414
37.862
37.228
36.624
36.135
35.737
35.382
35.06
34.82
34.688
34.67
34.709
34.759
34.832
34.935
35.018
35.06
35.046
34.951
34.78
34.583
34.389
34.199
33.994
33.762
33.532
33.337
33.196
33.063
32.918
32.798
32.697
32.693
33.091
34.373
36.588
39.169
41.324
42.541
42.731
42.124
41.063
39.911
38.897
38.069
37.406
36.885
36.529
36.432
36.66
37.16
37.812
38.43
38.871
39.078
39.025
38.735
38.209
37.517
36.818
36.206
35.715
35.362
35.116
34.942
34.806
34.705
34.656
34.663
34.707
34.765
34.823
34.862
34.834
34.747
34.663
34.58
34.443
34.227
34.011
33.829
33.676
33.532
33.394
33.265
33.118
32.953
32.82
32.763
32.966
33.844
35.601
37.952
40.285
41.997
42.795
42.702
41.967
40.929
39.864
38.925
38.165
37.612
37.195
36.897
36.849
37.165
37.756
38.431
38.987
39.306
39.346
39.115
38.669
38.073
37.444
36.859
36.33
35.9
35.584
35.352
35.169
35.048
34.979
34.985
35.05
35.102
35.149
35.208
35.264
35.242
35.109
34.885
34.664
34.511
34.391
34.251
34.09
33.925
33.734
33.497
33.254
33.069
32.965
32.894
32.935
33.436
34.78
36.94
39.36
41.391
42.617
42.918
42.453
41.492
40.374
39.381
38.592
37.964
37.425
37.001
36.837
37.038
37.581
38.335
39.058
39.553
39.718
39.559
39.111
38.495
37.819
37.149
36.523
36.005
35.6
35.273
35.067
34.969
34.939
34.947
34.97
34.973
34.948
34.93
34.932
34.91
34.87
34.847
34.774
34.613
34.452
34.287
34.102
33.885
33.645
33.417
33.27
33.197
33.106
32.958
32.844
33.05
34.078
36.092
38.661
41.071
42.738
43.471
43.37
42.639
41.476
40.147
38.975
38.122
37.592
37.213
36.914
36.844
37.127
37.743
38.488
39.147
39.578
39.636
39.33
38.78
38.113
37.407
36.74
36.174
35.721
35.344
35.01
34.75
34.623
34.658
34.797
34.933
34.994
34.99
34.978
34.992
34.958
34.856
34.743
34.591
34.399
34.121
33.728
33.314
32.971
32.734
32.594
32.501
32.447
32.447
32.49
32.607
33.078
34.332
36.485
39.138
41.564
43.189
43.783
43.462
42.492
41.243
40.043
39.107
38.483
38.048
37.696
37.466
37.532
37.965
38.696
39.505
40.144
40.476
40.46
40.102
39.51
38.841
38.207
37.614
37.002
36.418
35.964
35.708
35.591
35.51
35.403
35.328
35.353
35.446
35.537
35.567
35.54
35.451
35.292
35.105
34.918
34.689
34.432
34.174
33.946
33.773
33.634
33.47
33.269
33.061
32.859
32.71
32.745
33.384
35.064
37.628
40.383
42.586
43.795
43.963
43.298
42.167
40.931
39.823
38.92
38.188
37.573
37.096
36.883
37.059
37.576
38.28
39.032
39.645
39.88
39.677
39.172
38.547
37.888
37.203
36.526
35.921
35.46
35.162
34.954
34.776
34.651
34.628
34.693
34.827
34.984
35.118
35.195
35.178
35.061
34.87
34.64
34.384
34.13
33.878
33.658
33.49
33.307
33.092
32.916
32.794
32.677
32.54
32.437
32.475
32.894
34.128
36.32
39.024
41.482
43.08
43.608
43.277
42.426
41.309
40.144
39.126
38.314
37.679
37.211
37.004
37.142
37.62
38.331
39.059
39.631
39.916
39.828
39.419
38.775
38.026
37.266
36.532
35.905
35.432
35.081
34.84
34.711
34.726
34.851
35.001
35.067
35.076
35.064
35.04
34.985
34.916
34.796
34.608
34.365
34.144
34.005
33.922
33.847
33.692
33.429
33.146
32.936
32.822
32.715
32.597
32.569
32.91
34.019
36.063
38.606
40.934
42.468
43.033
42.77
41.99
40.976
39.956
39.073
38.356
37.731
37.187
36.842
36.859
37.308
38.015
38.728
39.238
39.435
39.328
38.989
38.479
37.865
37.245
36.653
36.105
35.658
35.339
35.135
35.005
34.944
34.916
34.917
34.956
35.005
35.08
35.17
35.213
35.168
35.061
34.885
34.656
34.41
34.182
34.019
33.895
33.773
33.618
33.414
33.211
33.062
32.95
32.834
32.723
32.693
33.045
34.18
36.191
38.673
40.969
42.49
43.027
42.71
41.812
40.725
39.722
38.893
38.268
37.822
37.492
37.299
37.338
37.691
38.258
38.864
39.318
39.519
39.464
39.157
38.657
37.998
37.293
36.628
36.059
35.59
35.269
35.115
35.084
35.082
35.072
35.08
35.11
35.128
35.14
35.148
35.173
35.208
35.158
34.976
34.71
34.413
34.165
33.979
33.816
33.686
33.561
33.396
33.25
33.204
33.195
33.126
32.981
32.869
32.937
33.465
34.775
36.932
39.455
41.64
42.993
43.346
42.89
41.98
40.937
39.966
39.158
38.541
38.083
37.765
37.604
37.703
38.11
38.722
39.308
39.651
39.725
39.597
39.29
38.819
38.203
37.489
36.769
36.169
35.729
35.403
35.206
35.121
35.078
35.055
35.086
35.166
35.257
35.309
35.317
35.273
35.176
35.043
34.868
34.632
34.355
34.081
33.849
33.668
33.505
33.355
33.214
33.101
33.035
32.977
32.907
32.89
32.913
32.891
32.789
32.747
33.111
34.334
36.52
39.159
41.542
43.131
43.736
43.448
42.535
41.38
40.251
39.314
38.704
38.369
38.111
37.942
37.966
38.255
38.792
39.374
39.769
39.903
39.792
39.479
38.985
38.364
37.656
36.934
36.306
35.852
35.545
35.308
35.161
35.151
35.236
35.32
35.362
35.356
35.301
35.225
35.15
35.067
34.958
34.8
34.557
34.273
34.03
33.861
33.718
33.537
33.315
33.135
33.082
33.161
33.24
33.242
33.163
33.042
32.888
32.746
32.645
32.703
33.31
34.864
37.33
40.137
42.465
43.763
43.991
43.411
42.348
41.147
40.068
39.216
38.565
38.032
37.599
37.346
37.391
37.774
38.397
39.07
39.569
39.742
39.599
39.241
38.691
37.961
37.154
36.412
35.814
35.407
35.138
34.946
34.84
34.814
34.808
34.829
34.866
34.922
34.987
35.051
35.053
34.932
34.723
34.486
34.262
34.067
33.84
33.563
33.266
33.044
32.924
32.847
32.743
32.642
32.609
32.566
32.459
32.355
32.272
32.223
32.184
32.263
32.863
34.46
37.04
39.961
42.417
43.84
44.124
43.504
42.382
41.089
39.931
39.035
38.347
37.825
37.4
37.133
37.196
37.637
38.335
39.084
39.693
40.042
40.012
39.565
38.843
38.023
37.233
36.505
35.891
35.397
34.985
34.634
34.369
34.282
34.339
34.463
34.602
34.73
34.834
34.897
34.888
34.823
34.701
34.53
34.295
34.03
33.797
33.568
33.292
33.047
32.879
32.78
32.703
32.614
32.532
32.481
32.43
32.384
32.34
32.297
32.273
32.444
33.246
35.071
37.817
40.811
43.19
44.432
44.497
43.703
42.467
41.11
39.862
38.809
37.984
37.415
37.03
36.87
37.048
37.586
38.404
39.272
39.934
40.177
39.964
39.432
38.72
37.955
37.229
36.548
35.894
35.289
34.795
34.439
34.247
34.237
34.368
34.529
34.663
34.794
34.956
35.122
35.215
35.14
34.93
34.677
34.446
34.217
33.949
33.655
33.386
33.118
32.876
32.722
32.678
32.707
32.726
32.731
32.702
32.644
32.563
32.457
32.437
32.923
34.398
36.889
39.831
42.428
44.091
44.586
44.09
43.02
41.779
40.586
39.505
38.576
37.831
37.289
37.002
37.081
37.566
38.347
39.223
39.961
40.342
40.283
39.879
39.249
38.446
37.568
36.777
36.091
35.547
35.176
34.901
34.712
34.658
34.697
34.771
34.883
35.043
35.209
35.327
35.332
35.238
35.086
34.883
34.65
34.452
34.244
33.962
33.625
33.267
32.997
32.86
32.82
32.836
32.836
32.748
32.604
32.478
32.422
32.393
32.459
32.98
34.436
36.895
39.797
42.361
43.995
44.493
44.043
42.985
41.717
40.461
39.333
38.447
37.824
37.393
37.107
37.083
37.478
38.259
39.17
39.891
40.251
40.228
39.874
39.281
38.568
37.792
36.994
36.238
35.593
35.088
34.744
34.587
34.613
34.779
34.969
35.14
35.275
35.358
35.415
35.41
35.308
35.153
34.966
34.759
34.534
34.26
33.973
33.683
33.417
33.253
33.195
33.148
33.089
33.028
32.968
32.868
32.708
32.587
32.674
33.348
34.996
37.497
40.284
42.625
44.028
44.349
43.81
42.761
41.529
40.351
39.351
38.597
38.079
37.735
37.573
37.669
38.083
38.781
39.605
40.264
40.553
40.43
39.957
39.235
38.4
37.606
36.919
36.325
35.857
35.548
35.359
35.241
35.24
35.315
35.365
35.419
35.556
35.735
35.833
35.813
35.66
35.401
35.114
34.865
34.667
34.46
34.163
33.84
33.6
33.486
33.431
33.366
33.25
33.103
32.969
32.899
32.955
33.319
34.418
36.483
39.165
41.775
43.648
44.439
44.227
43.326
42.137
40.961
39.979
39.244
38.658
38.137
37.791
37.772
38.112
38.724
39.407
39.974
40.277
40.248
39.915
39.342
38.658
37.963
37.255
36.585
36.043
35.681
35.52
35.474
35.433
35.38
35.377
35.456
35.568
35.647
35.673
35.622
35.491
35.265
34.951
34.636
34.344
34.106
33.929
33.81
33.696
33.564
33.417
33.252
33.095
32.999
32.936
32.888
32.883
32.976
33.507
34.904
37.215
39.883
42.092
43.309
43.488
42.907
41.913
40.806
39.801
38.958
38.299
37.79
37.402
37.228
37.373
37.812
38.411
38.971
39.328
39.398
39.176
38.703
38.053
37.351
36.669
36.066
35.589
35.231
34.986
34.839
34.782
34.762
34.782
34.873
34.988
35.094
35.165
35.159
35.065
34.892
34.664
34.411
34.182
33.995
33.832
33.666
33.496
33.337
33.2
33.119
33.079
33.002
32.872
32.726
32.643
32.728
33.168
34.239
36.073
38.318
40.349
41.665
42.066
41.688
40.837
39.813
38.882
38.18
37.688
37.245
36.816
36.555
36.622
37.014
37.606
38.193
38.594
38.711
38.514
38.091
37.536
36.897
36.253
35.681
35.222
34.858
34.587
34.426
34.366
34.398
34.457
34.506
34.582
34.701
34.814
34.856
34.837
34.766
34.63
34.394
34.099
33.799
33.543
33.383
33.326
33.27
33.193
33.096
32.986
32.88
32.768
32.666
32.6
32.594
32.756
33.374
34.754
36.795
39.022
40.777
41.638
41.619
40.97
40.019
39.027
38.204
37.649
37.304
37.031
36.808
36.714
36.842
37.195
37.704
38.237
38.616
38.702
38.49
38.038
37.446
36.839
36.257
35.764
35.405
35.159
34.977
34.856
34.818
34.858
34.928
34.969
34.992
35.034
35.084
35.087
35.014
34.886
34.72
34.568
34.427
34.268
34.086
33.869
33.622
33.405
33.253
33.152
33.107
33.082
33.027
32.946
32.879
