32.477
32.57
33.395
34.729
36.183
37.394
38.121
38.286
37.971
37.305
36.445
35.53
34.655
33.893
33.255
32.695
32.17
31.664
31.171
30.689
30.243
29.881
29.682
29.864
31.045
34.05
38.893
44.344
48.76
51.078
51.166
49.586
47.132
44.462
41.954
39.727
37.756
35.982
34.403
33.161
32.488
32.567
33.388
34.726
36.197
37.428
38.174
38.364
38.071
37.43
36.597
35.689
34.808
34.035
33.39
32.828
32.3
31.786
31.28
30.799
30.385
30.079
29.928
30.099
31.155
33.922
38.527
43.858
48.287
50.684
50.858
49.351
46.936
44.271
41.736
39.478
37.485
35.705
34.147
32.933
32.293
32.416
33.288
34.651
36.111
37.291
37.965
38.075
37.716
37.057
36.233
35.362
34.54
33.819
33.2
32.661
32.161
31.663
31.161
30.682
30.263
29.936
29.753
29.924
31.077
34.023
38.774
44.139
48.495
50.766
50.825
49.238
46.78
44.091
41.541
39.279
37.307
35.555
34.011
32.794
32.131
32.21
33.043
34.389
35.849
37.048
37.735
37.867
37.535
36.876
36.044
35.15
34.287
33.537
32.909
32.358
31.834
31.326
30.827
30.341
29.897
29.533
29.318
29.435
30.47
33.284
38.015
43.529
48.137
50.649
50.853
49.307
46.835
44.123
41.553
39.269
37.257
35.449
33.825
32.497
31.697
31.629
32.335
33.619
35.119
36.442
37.312
37.63
37.424
36.829
36.009
35.105
34.237
33.473
32.815
32.219
31.65
31.092
30.539
30.011
29.547
29.196
29.021
29.244
30.563
33.827
38.948
44.559
48.954
51.1
50.958
49.187
46.61
43.861
41.284
38.996
36.974
35.16
33.537
32.225
31.468
31.491
32.324
33.724
35.286
36.599
37.391
37.588
37.284
36.647
35.837
34.973
34.143
33.391
32.724
32.109
31.525
30.953
30.405
29.915
29.512
29.228
29.122
29.494
31.121
34.727
39.929
45.212
48.991
50.49
49.87
47.855
45.235
42.568
40.116
37.938
35.983
34.219
32.709
31.642
31.262
31.722
32.911
34.484
36.008
37.129
37.671
37.659
37.227
36.555
35.784
34.994
34.234
33.511
32.807
32.121
31.478
30.898
30.393
29.969
29.668
29.655
30.44
32.855
37.169
42.414
46.975
49.646
50.13
48.889
46.666
44.113
41.629
39.394
37.421
35.656
34.099
32.871
32.182
32.222
33.013
34.338
35.815
37.056
37.812
38.025
37.763
37.179
36.44
35.657
34.885
34.132
33.386
32.671
32.028
31.463
30.962
30.55
30.302
30.41
31.453
34.184
38.594
43.556
47.557
49.623
49.652
48.178
45.939
43.523
41.248
39.241
37.47
35.865
34.439
33.342
32.808
32.992
33.832
35.061
36.324
37.29
37.77
37.756
37.35
36.707
35.973
35.227
34.505
33.812
33.148
32.515
31.911
31.351
30.854
30.457
30.212
30.299
31.293
33.95
38.271
43.152
47.114
49.193
49.27
47.862
45.69
43.34
41.14
39.213
37.52
35.985
34.605
33.523
32.961
33.083
33.846
35.003
36.218
37.163
37.644
37.636
37.227
36.568
35.802
35.038
34.338
33.711
33.12
32.545
32.0
31.48
30.991
30.558
30.214
30.019
30.177
31.288
34.094
38.517
43.39
47.249
49.186
49.152
47.7
45.539
43.228
41.076
39.186
37.521
36.013
34.671
33.631
33.113
33.267
34.033
35.157
36.301
37.169
37.599
37.561
37.133
36.448
35.655
34.88
34.198
33.604
33.065
32.549
32.025
31.485
30.961
30.503
30.149
29.923
29.917
30.557
32.629
36.434
41.151
45.335
47.859
48.412
47.379
45.437
43.194
41.035
39.121
37.45
35.94
34.561
33.418
32.721
32.67
33.302
34.411
35.637
36.644
37.209
37.293
36.992
36.431
35.735
35.014
34.33
33.718
33.171
32.652
32.133
31.62
31.137
30.705
30.349
30.098
30.01
30.321
31.644
34.588
38.869
43.277
46.495
47.841
47.429
45.849
43.741
41.556
39.525
37.716
36.109
34.657
33.413
32.572
32.337
32.792
33.821
35.122
36.316
37.122
37.431
37.273
36.787
36.117
35.388
34.69
34.061
33.498
32.976
32.465
31.95
31.444
30.983
30.601
30.33
30.238
30.611
32.126
35.303
39.674
43.961
46.926
48.01
47.425
45.787
43.701
41.582
39.63
37.89
36.327
34.905
33.683
32.839
32.586
33.032
34.053
35.326
36.482
37.257
37.547
37.384
36.887
36.209
35.473
34.754
34.087
33.453
32.843
32.275
31.755
31.276
30.829
30.446
30.202
30.264
31.121
33.487
37.45
42.03
45.825
47.891
48.093
46.895
44.959
42.812
40.756
38.906
37.248
35.726
34.342
33.229
32.605
32.653
33.39
34.597
35.887
36.889
37.402
37.411
37.028
36.4
35.675
34.954
34.277
33.644
33.057
32.491
31.932
31.392
30.89
30.457
30.113
29.907
30.097
31.373
34.4
38.884
43.542
46.99
48.513
48.214
46.693
44.611
42.432
40.382
38.523
36.848
35.32
33.973
32.964
32.507
32.736
33.592
34.83
36.085
37.021
37.469
37.429
37.021
36.384
35.646
34.913
34.228
33.575
32.931
32.305
31.703
31.136
30.632
30.223
29.938
29.893
30.584
32.821
36.823
41.647
45.784
48.155
48.543
47.412
45.444
43.195
40.988
38.962
37.115
35.411
33.88
32.662
31.952
31.942
32.669
33.926
35.339
36.53
37.253
37.449
37.202
36.671
36.006
35.288
34.553
33.823
33.104
32.411
31.76
31.176
30.683
30.281
29.987
29.91
30.505
32.596
36.498
41.359
45.671
48.254
48.801
47.727
45.72
43.372
41.028
38.84
36.829
34.993
33.388
32.154
31.5
31.619
32.521
33.969
35.544
36.844
37.624
37.84
37.597
37.059
36.368
35.619
34.866
34.123
33.385
32.671
31.999
31.381
30.845
30.426
30.186
30.328
31.499
34.449
39.014
43.933
47.705
49.472
49.262
47.665
45.376
42.917
40.576
38.45
36.537
34.818
33.38
32.401
32.085
32.537
33.669
35.166
36.612
37.681
38.204
38.211
37.829
37.214
36.49
35.706
34.89
34.067
33.265
32.522
31.873
31.325
30.871
30.548
30.554
31.516
34.216
38.628
43.586
47.555
49.574
49.564
48.068
45.803
43.351
41.02
38.902
36.993
35.276
33.795
32.722
32.287
32.621
33.661
35.097
36.509
37.544
38.029
38.002
37.603
36.985
36.27
35.507
34.721
33.925
33.131
32.367
31.687
31.119
30.662
30.328
30.26
31.017
33.437
37.683
42.747
47.067
49.499
49.796
48.445
46.195
43.674
41.257
39.081
37.121
35.333
33.756
32.556
31.977
32.19
33.139
34.543
36.009
37.174
37.823
37.926
37.58
36.951
36.197
35.415
34.638
33.874
33.123
32.403
31.731
31.123
30.605
30.205
29.995
30.283
31.836
35.285
40.193
45.135
48.648
50.012
49.395
47.486
45.02
42.488
40.129
38.003
36.076
34.341
32.906
31.973
31.749
32.326
33.56
35.08
36.456
37.384
37.748
37.613
37.139
36.478
35.736
34.959
34.16
33.36
32.588
31.853
31.176
30.595
30.138
29.834
29.789
30.462
32.669
36.736
41.809
46.343
49.09
49.661
48.457
46.227
43.638
41.102
38.785
36.701
34.814
33.161
31.909
31.308
31.539
32.559
34.073
35.649
36.91
37.633
37.788
37.504
36.953
36.266
35.513
34.721
33.915
33.111
32.328
31.593
30.957
30.452
30.083
29.925
30.341
32.126
35.82
40.834
45.669
48.916
49.961
49.053
46.91
44.275
41.636
39.22
37.055
35.083
33.327
31.975
31.279
31.407
32.336
33.823
35.458
36.827
37.682
37.969
37.778
37.26
36.552
35.766
34.944
34.095
33.251
32.454
31.737
31.113
30.592
30.214
30.112
30.757
32.989
37.135
42.313
46.924
49.691
50.226
48.946
46.626
43.966
41.383
39.051
36.977
35.122
33.527
32.343
31.783
31.999
32.958
34.399
35.914
37.14
37.86
38.036
37.767
37.195
36.461
35.655
34.8
33.918
33.055
32.249
31.519
30.903
30.44
30.176
30.302
31.434
34.351
38.987
44.115
48.169
50.149
49.968
48.219
45.697
43.037
40.574
38.389
36.426
34.647
33.145
32.143
31.873
32.404
33.578
35.044
36.401
37.354
37.769
37.68
37.219
36.556
35.815
35.042
34.243
33.435
32.631
31.861
31.163
30.569
30.095
29.783
29.814
30.78
33.52
38.107
43.391
47.733
50.009
50.043
48.397
45.89
43.199
40.68
38.448
36.469
34.683
33.15
32.067
31.668
32.057
33.134
34.594
36.024
37.08
37.584
37.545
37.099
36.405
35.61
34.823
34.075
33.349
32.636
31.946
31.298
30.712
30.209
29.815
29.593
29.787
31.1
34.307
39.232
44.522
48.55
50.375
50.007
48.098
45.464
42.723
40.2
37.992
36.035
34.271
32.765
31.727
31.399
31.893
33.081
34.609
36.051
37.084
37.541
37.449
36.948
36.214
35.41
34.636
33.904
33.202
32.525
31.859
31.214
30.612
30.09
29.686
29.43
29.437
30.2
32.58
36.899
42.232
46.943
49.725
50.197
48.801
46.334
43.515
40.801
38.345
36.142
34.153
32.425
31.143
30.583
30.909
32.042
33.674
35.365
36.714
37.482
37.642
37.317
36.69
35.93
35.143
34.37
33.605
32.837
32.089
31.39
30.75
30.189
29.731
29.421
29.428
30.297
32.854
37.328
42.708
47.337
49.978
50.321
48.84
46.333
43.502
40.782
38.327
36.121
34.139
32.429
31.18
30.643
30.984
32.133
33.768
35.458
36.813
37.598
37.782
37.481
36.877
36.13
35.312
34.474
33.643
32.825
32.028
31.29
30.652
30.132
29.76
29.652
30.277
32.504
36.737
42.121
46.995
49.986
50.645
49.382
46.987
44.188
41.455
38.982
36.781
34.812
33.091
31.767
31.085
31.237
32.194
33.688
35.314
36.668
37.489
37.728
37.482
36.917
36.182
35.372
34.54
33.709
32.883
32.067
31.307
30.643
30.1
29.696
29.504
29.928
31.823
35.769
41.112
46.218
49.595
50.64
49.664
47.432
44.692
41.94
39.415
37.153
35.107
33.288
31.846
31.021
31.004
31.813
33.229
34.863
36.298
37.253
37.607
37.423
36.872
36.127
35.321
34.507
33.686
32.866
32.076
31.329
30.648
30.077
29.64
29.371
29.481
30.655
33.753
38.732
44.267
48.632
50.754
50.57
48.732
46.077
43.26
40.63
38.289
36.2
34.309
32.679
31.519
31.082
31.487
32.622
34.175
35.736
36.928
37.564
37.619
37.203
36.504
35.698
34.883
34.094
33.304
32.494
31.699
30.968
30.339
29.828
29.43
29.195
29.422
30.904
34.403
39.598
45.001
48.966
50.617
50.059
48.003
45.269
42.448
39.834
37.483
35.342
33.417
31.84
30.841
30.635
31.301
32.666
34.355
35.94
37.089
37.634
37.61
37.167
36.484
35.71
34.913
34.095
33.263
32.44
31.651
30.925
30.294
29.795
29.458
29.372
29.96
32.081
36.219
41.599
46.574
49.721
50.522
49.346
46.977
44.158
41.366
38.795
36.474
34.38
32.55
31.16
30.465
30.66
31.725
33.366
35.135
36.607
37.522
37.833
37.629
37.074
36.34
35.54
34.721
33.898
33.078
32.266
31.499
30.812
30.22
29.748
29.462
29.655
31.1
34.571
39.784
45.255
49.299
51.009
50.479
48.424
45.658
42.766
40.047
37.593
35.404
33.472
31.891
30.873
30.656
31.321
32.691
34.385
35.978
37.143
37.721
37.732
37.31
36.637
35.87
35.066
34.238
33.406
32.584
31.79
31.05
30.403
29.896
29.565
29.568
30.497
33.238
37.959
43.498
48.108
50.577
50.704
49.062
46.485
43.646
40.924
38.452
36.219
34.203
32.478
31.23
30.706
31.053
32.186
33.797
35.458
36.78
37.537
37.697
37.379
36.756
35.978
35.156
34.331
33.501
32.663
31.849
31.109
30.467
29.928
29.512
29.33
29.845
31.966
36.191
41.727
46.874
50.146
51.005
49.846
47.486
44.685
41.919
39.392
37.112
35.041
33.212
31.781
30.98
31.004
31.883
33.397
35.122
36.618
37.585
37.932
37.753
37.217
36.478
35.658
34.812
33.952
33.096
32.272
31.511
30.836
30.27
29.844
29.663
30.128
32.059
35.996
41.295
46.356
49.694
50.712
49.699
47.412
44.631
41.88
39.37
37.12
35.071
33.235
31.803
31.059
31.212
32.234
33.845
35.597
37.053
37.941
38.212
37.981
37.426
36.684
35.853
34.979
34.071
33.16
32.311
31.574
30.954
30.45
30.108
30.181
31.347
34.381
39.179
44.448
48.548
50.465
50.161
48.283
45.653
42.884
40.302
37.978
35.869
33.979
32.437
31.464
31.297
32.013
33.421
35.111
36.624
37.646
38.076
37.987
37.525
36.831
36.007
35.105
34.171
33.25
32.379
31.599
30.944
30.44
30.131
30.227
31.397
34.444
39.275
44.569
48.657
50.531
50.179
48.258
45.596
42.835
40.302
38.061
36.051
34.242
32.759
31.851
31.732
32.43
33.741
35.291
36.669
37.605
38.012
37.941
37.516
36.848
36.004
35.055
34.063
33.087
32.186
31.421
30.811
30.362
30.163
30.609
32.509
36.37
41.536
46.446
49.655
50.561
49.469
47.164
44.429
41.784
39.437
37.377
35.541
33.945
32.759
32.225
32.49
33.481
34.902
36.358
37.5
38.133
38.255
37.97
37.391
36.604
35.668
34.66
33.677
32.789
32.02
31.386
30.912
30.677
30.968
32.46
35.78
40.579
45.475
48.969
50.28
49.555
47.517
44.962
42.445
40.192
38.214
36.438
34.841
33.549
32.807
32.807
33.522
34.717
36.028
37.105
37.758
37.942
37.716
37.179
36.414
35.494
34.495
33.516
32.628
31.877
31.276
30.819
30.569
30.832
32.317
35.606
40.298
45.029
48.36
49.578
48.852
46.883
44.432
42.033
39.925
38.106
36.447
34.91
33.648
32.918
32.896
33.576
34.73
35.967
36.944
37.473
37.527
37.215
36.655
35.937
35.127
34.261
33.368
32.511
31.762
31.151
30.677
30.338
30.257
30.975
33.301
37.413
42.348
46.563
48.918
49.142
47.718
45.432
42.97
40.738
38.849
37.219
35.706
34.315
33.236
32.714
32.898
33.711
34.874
36.012
36.812
37.128
36.981
36.501
35.836
35.099
34.35
33.604
32.856
32.121
31.433
30.824
30.303
29.874
29.571
29.584
30.492
33.06
37.331
42.245
46.29
48.428
48.49
47.001
44.72
42.28
40.039
38.098
36.412
34.883
33.506
32.454
32.009
32.319
33.262
34.509
35.685
36.502
36.818
36.654
36.137
35.434
34.691
33.983
33.313
32.662
32.012
31.372
30.768
30.234
29.791
29.479
29.365
29.676
31.049
34.112
38.609
43.308
46.807
48.323
47.888
46.093
43.673
41.185
38.928
36.958
35.2
33.622
32.329
31.536
31.455
32.127
33.358
34.777
35.998
36.764
36.992
36.754
36.208
35.515
34.778
34.045
33.343
32.673
32.025
31.4
30.835
30.353
29.965
29.701
29.711
30.52
32.898
36.983
41.803
45.88
48.151
48.39
47.048
44.844
42.405
40.11
38.08
36.293
34.688
33.286
32.243
31.781
32.046
32.979
34.309
35.664
36.694
37.216
37.241
36.881
36.266
35.519
34.717
33.904
33.102
32.334
31.626
30.999
30.476
30.079
29.87
30.103
31.437
34.496
38.975
43.585
46.932
48.299
47.797
46.037
43.716
41.334
39.147
37.216
35.503
33.983
32.724
31.887
31.663
32.152
33.225
34.556
35.785
36.644
37.009
36.904
36.442
35.751
34.964
34.176
33.403
32.622
31.864
31.183
30.598
30.098
29.693
29.479
29.884
31.718
35.409
40.227
44.667
47.46
48.166
47.135
45.084
42.665
40.283
38.117
36.2
34.487
32.964
31.752
31.064
31.076
31.793
33.012
34.394
35.572
36.29
36.486
36.243
35.706
35.024
34.287
33.528
32.763
32.014
31.3
30.64
30.035
29.506
29.086
28.839
29.09
30.625
34.058
38.888
43.643
46.897
48.034
47.301
45.39
42.987
40.561
38.308
36.258
34.377
32.663
31.208
30.218
29.936
30.491
31.766
33.401
34.944
36.035
36.509
36.423
35.958
35.292
34.556
33.807
33.046
32.278
31.51
30.774
30.106
29.521
29.03
28.681
28.63
29.423
31.935
36.331
41.49
45.777
48.096
48.288
46.894
44.674
42.215
39.819
37.588
35.547
33.7
32.096
30.87
30.219
30.325
31.229
32.723
34.4
35.835
36.753
37.085
36.923
36.431
35.753
34.994
34.209
33.407
32.596
31.826
31.153
30.597
30.134
29.771
29.662
30.339
32.648
36.8
41.778
46.01
48.397
48.741
47.509
45.398
42.99
40.614
38.398
36.348
34.461
32.811
31.54
30.837
30.878
31.714
33.187
34.93
36.501
37.579
38.047
37.966
37.491
36.776
35.946
35.079
34.206
33.365
32.596
31.924
31.356
30.913
30.682
30.987
32.549
35.895
40.493
44.95
47.965
48.987
48.24
46.361
43.998
41.573
39.28
37.166
35.208
33.451
32.068
31.289
31.274
32.031
33.38
34.984
36.448
37.479
37.972
37.984
37.66
37.126
36.46
35.719
34.937
34.146
33.392
32.713
32.142
31.706
31.486
31.723
33.01
35.916
40.174
44.582
47.814
49.168
48.729
47.055
44.776
42.349
40.011
37.815
35.789
34.029
32.696
31.987
32.076
32.975
34.442
36.073
37.466
38.35
38.674
38.528
38.054
37.391
36.642
35.871
35.11
34.38
33.689
33.045
32.476
32.0
31.62
31.359
31.417
32.392
34.95
38.926
43.144
46.257
47.526
47.01
45.274
42.954
40.501
38.118
35.864
33.79
32.029
30.776
30.225
30.498
31.56
33.151
34.852
36.243
37.08
37.324
37.105
36.591
35.932
35.227
34.534
33.869
33.252
32.683
32.153
31.654
31.2
30.817
30.516
30.311
30.366
31.269
33.73
37.607
41.706
44.662
45.787
45.208
43.516
41.304
38.944
36.593
34.325
32.233
30.48
29.277
28.807
29.172
30.328
32.029
33.842
35.33
36.236
36.556
36.412
35.97
35.371
34.702
34.007
33.335
32.73
32.197
31.734
31.332
30.995
30.709
30.442
30.199
30.003
29.881
30.001
30.916
33.28
36.929
40.712
43.367
44.302
43.699
42.123
40.097
37.898
35.655
33.442
31.377
29.669
28.552
28.196
28.668
29.912
31.689
33.587
35.191
36.229
36.641
36.557
36.174
35.636
35.037
34.422
33.813
33.236
32.734
32.316
31.961
31.647
31.387
31.184
31.023
30.888
30.763
30.667
30.732
31.421
33.388
36.638
40.207
42.861
43.933
43.52
42.132
40.28
38.26
36.188
34.116
32.153
30.498
29.396
29.034
29.471
30.645
32.343
34.195
35.807
36.911
37.436
37.481
37.206
36.755
36.224
35.658
35.089
34.547
34.045
33.603
33.248
32.976
32.753
32.562
32.404
32.288
32.192
32.1
32.064
32.312
33.387
35.703
38.848
41.756
43.498
43.801
42.946
41.422
39.617
37.718
35.826
34.004
32.375
31.146
30.548
30.713
31.619
33.088
34.798
36.365
37.481
38.032
38.103
37.862
37.462
36.99
36.484
35.966
35.459
34.997
34.596
34.258
33.976
33.739
33.544
33.384
33.254
33.141
33.049
33.005
33.209
34.178
36.286
39.146
41.785
43.347
43.567
42.721
41.269
39.58
37.815
36.053
34.37
32.884
31.77
31.235
31.407
32.246
33.561
35.074
36.47
37.493
38.044
38.175
38.024
37.701
37.277
36.806
36.323
35.866
35.463
35.117
34.823
34.583
34.393
34.226
34.104
34.021
33.953
33.893
33.917
34.352
35.698
38.033
40.709
42.805
43.745
43.509
42.44
40.923
39.235
37.527
35.877
34.372
33.154
32.414
32.312
32.881
34.011
35.452
36.874
37.982
38.642
38.879
38.791
38.501
38.107
37.671
37.229
36.8
36.397
36.036
35.744
35.516
35.325
35.174
35.053
34.953
34.875
34.804
34.751
34.912
35.698
37.414
39.777
42.012
43.39
43.631
42.931
41.669
40.158
38.578
37.045
35.635
34.443
33.65
33.431
33.827
34.741
35.969
37.237
38.297
38.995
39.299
39.271
39.023
38.641
38.2
37.738
37.277
36.844
36.473
36.176
35.953
35.787
35.661
35.553
35.449
35.34
35.237
35.161
35.279
35.997
37.623
39.909
42.11
43.491
43.761
43.094
41.859
40.38
38.858
37.398
36.071
34.975
34.249
34.015
34.33
35.118
36.19
37.319
38.268
38.883
39.146
39.123
38.913
38.575
38.156
37.7
37.241
36.822
36.46
36.171
35.946
35.763
35.605
35.473
35.357
35.264
35.192
35.12
35.099
35.421
36.533
38.555
40.958
42.92
43.869
43.728
42.768
41.363
39.813
38.306
36.932
35.765
34.906
34.441
34.435
34.907
35.763
36.8
37.781
38.522
38.944
39.048
38.903
38.587
38.168
37.716
37.269
36.85
36.474
36.154
35.879
35.646
35.456
35.298
35.158
35.04
34.935
34.828
34.755
34.902
35.646
37.296
39.627
41.908
43.401
43.784
43.194
41.997
40.521
38.987
37.53
36.231
35.18
34.48
34.221
34.464
35.175
36.181
37.251
38.158
38.759
39.033
39.015
38.78
38.385
37.894
37.376
36.892
36.48
36.132
35.825
35.565
35.341
35.134
34.96
34.83
34.723
34.631
34.6
34.789
35.561
37.244
39.649
42.064
43.706
44.192
43.63
42.387
40.836
39.237
37.727
36.388
35.297
34.537
34.191
34.339
34.977
35.953
37.028
37.968
38.603
38.892
38.892
38.682
38.336
37.908
37.468
37.063
36.706
36.401
36.137
35.894
35.661
35.431
35.197
34.973
34.768
34.573
34.458
34.709
35.78
37.857
40.498
42.868
44.261
44.452
43.637
42.212
40.552
38.908
37.417
36.144
35.162
34.57
34.446
34.82
35.624
36.649
37.651
38.431
38.877
38.989
38.82
38.473
38.032
37.558
37.106
36.713
36.37
36.075
35.821
35.591
35.38
35.185
34.993
34.798
34.622
34.608
35.137
36.646
39.105
41.846
43.997
44.986
44.743
43.579
41.929
40.169
38.525
37.09
35.907
35.028
34.544
34.575
35.135
36.078
37.151
38.12
38.822
39.185
39.211
38.962
38.537
38.009
37.445
36.9
36.421
36.036
35.721
35.449
35.217
35.003
34.812
34.66
34.537
34.46
34.624
35.478
37.374
40.093
42.842
44.756
45.365
44.722
43.217
41.323
39.414
37.709
36.269
35.105
34.289
33.942
34.142
34.868
35.958
37.138
38.16
38.856
39.172
39.139
38.817
38.291
37.666
37.044
36.495
36.05
35.691
35.401
35.157
34.949
34.763
34.584
34.412
34.242
34.089
34.051
34.452
35.766
38.159
41.122
43.718
45.156
45.169
44.009
42.172
40.135
38.235
36.61
35.274
34.259
33.674
33.634
34.185
35.215
36.457
37.62
38.502
38.996
39.094
38.854
38.391
37.818
37.187
36.552
35.994
35.542
35.191
34.928
34.717
34.518
34.327
34.169
34.039
33.921
33.878
34.163
35.239
37.402
40.309
43.076
44.825
45.167
44.252
42.542
40.526
38.565
36.846
35.429
34.335
33.624
33.409
33.758
34.601
35.729
36.871
37.806
38.397
38.603
38.476
38.109
37.591
37.019
36.476
36.007
35.622
35.304
35.032
34.794
34.573
34.357
34.147
33.955
33.784
33.665
33.845
34.839
36.985
39.943
42.803
44.659
45.081
44.199
42.481
40.452
38.482
36.755
35.344
34.256
33.547
33.324
33.681
34.541
35.68
36.846
37.811
38.427
38.659
38.543
38.16
37.611
36.982
36.362
35.812
35.352
34.995
34.728
34.516
34.325
34.144
33.968
33.789
33.613
33.486
33.578
34.321
36.196
39.113
42.259
44.592
45.465
44.872
43.255
41.174
39.071
37.188
35.61
34.357
33.49
33.119
33.322
34.069
35.187
36.43
37.534
38.311
38.67
38.639
38.327
37.83
37.243
36.644
36.073
35.567
35.171
34.875
34.638
34.448
34.285
34.129
33.963
33.8
33.678
33.72
34.309
35.991
38.849
42.169
44.86
46.114
45.769
44.222
42.068
39.821
37.779
36.069
34.713
33.721
33.174
33.198
33.826
34.916
36.211
37.435
38.355
38.855
38.929
38.649
38.135
37.492
36.818
36.197
35.665
35.231
34.89
34.62
34.385
34.171
33.979
33.803
33.632
33.479
33.452
33.896
35.349
38.011
41.333
44.261
45.887
45.892
44.556
42.462
40.171
38.037
36.225
34.762
33.649
32.973
32.865
33.381
34.4
35.682
36.957
37.97
38.579
38.756
38.55
38.073
37.44
36.744
36.081
35.508
35.038
34.673
34.41
34.209
34.032
33.87
33.722
33.586
33.445
33.357
33.584
34.666
37.009
40.278
43.466
45.529
45.952
44.884
42.879
40.527
38.268
36.309
34.699
33.46
32.667
32.437
32.84
33.81
35.138
36.53
37.695
38.439
38.711
38.567
38.134
37.528
36.845
36.174
35.566
35.052
34.647
34.337
34.092
33.876
33.676
33.496
33.33
33.161
33.004
33.094
33.996
36.222
39.583
43.102
45.612
46.426
45.583
43.609
41.166
38.76
36.659
34.955
33.638
32.73
32.35
32.605
33.456
34.706
36.084
37.311
38.18
38.614
38.622
38.273
37.697
37.012
36.319
35.691
35.152
34.717
34.389
34.146
33.929
33.714
33.527
33.374
33.243
33.206
33.578
34.905
37.459
40.764
43.768
45.502
45.585
44.271
42.144
39.774
37.536
35.588
33.979
32.759
32.042
31.964
32.557
33.683
35.093
36.501
37.673
38.487
38.892
38.912
38.633
38.15
37.566
36.952
36.353
35.798
35.285
34.792
34.321
33.902
33.547
33.24
32.99
32.89
33.238
34.549
37.125
40.52
43.684
45.606
45.841
44.585
42.433
39.978
37.648
35.638
33.991
32.771
32.128
32.223
33.051
34.409
35.998
37.468
38.551
39.122
39.184
38.85
38.261
37.554
36.843
36.199
35.638
35.169
34.796
34.499
34.246
34.033
33.856
33.699
33.587
33.699
34.487
36.413
39.361
42.499
44.785
45.564
44.815
42.992
40.685
38.365
36.285
34.539
33.184
32.339
32.137
32.612
33.648
35.016
36.405
37.529
38.233
38.477
38.329
37.907
37.338
36.749
36.216
35.749
35.348
35.018
34.747
34.525
34.35
34.2
34.063
33.979
34.144
34.955
36.795
39.586
42.584
44.788
45.54
44.787
42.952
40.629
38.285
36.201
34.481
33.16
32.31
32.068
32.546
33.665
35.146
36.637
37.848
38.59
38.832
38.647
38.154
37.48
36.764
36.105
35.549
35.086
34.693
34.356
34.066
33.815
33.59
33.397
33.281
33.405
34.168
36.013
38.892
42.037
44.404
45.297
44.643
42.853
40.51
38.12
35.977
34.195
32.833
31.984
31.775
32.273
33.406
34.933
36.505
37.788
38.586
38.854
38.672
38.171
37.501
36.793
36.126
35.523
35.003
34.571
34.203
33.879
33.611
33.416
33.277
33.214
33.443
34.402
36.464
39.414
42.396
44.418
44.91
43.944
41.996
39.64
37.336
35.316
33.661
32.441
31.777
31.789
32.485
33.707
35.176
36.567
37.608
38.161
38.244
37.963
37.45
36.823
36.165
35.548
35.022
34.616
34.303
34.052
33.841
33.649
33.464
33.288
33.231
33.605
34.901
37.354
40.485
43.287
44.855
44.845
43.488
41.333
38.931
36.65
34.68
33.121
32.055
31.592
31.82
32.728
34.133
35.705
37.099
38.089
38.59
38.629
38.315
37.76
37.094
36.421
35.795
35.246
34.793
34.437
34.164
33.95
33.776
33.633
33.554
33.741
34.649
36.679
39.648
42.701
44.806
45.351
44.377
42.375
39.942
37.548
35.436
33.699
32.42
31.751
31.826
32.651
34.042
35.673
37.177
38.275
38.831
38.869
38.52
37.942
37.259
36.575
35.965
35.462
35.052
34.7
34.402
34.158
33.949
33.741
33.556
33.581
34.246
36.027
38.903
42.097
44.526
45.44
44.76
42.918
40.527
38.105
35.926
34.118
32.754
31.945
31.822
32.415
33.611
35.144
36.652
37.831
38.526
38.703
38.437
37.881
37.181
36.474
35.836
35.276
34.81
34.44
34.147
33.91
33.716
33.557
33.457
33.558
34.259
36.062
38.95
42.154
44.577
45.459
44.711
42.784
40.3
37.78
35.539
33.699
32.308
31.487
31.401
32.103
33.454
35.139
36.774
38.032
38.733
38.862
38.528
37.901
37.14
36.371
35.676
35.071
34.544
34.107
33.773
33.537
33.364
33.213
33.109
33.236
34.015
35.924
38.928
42.206
44.644
45.492
44.681
42.68
40.135
37.573
35.281
33.373
31.903
30.988
30.789
31.386
32.691
34.422
36.167
37.552
38.367
38.576
38.288
37.677
36.904
36.106
35.374
34.759
34.251
33.838
33.524
33.3
33.121
32.956
32.85
33.017
33.926
36.055
39.268
42.631
44.985
45.643
44.64
42.502
39.876
37.285
35.007
33.129
31.724
30.953
30.994
31.885
33.423
35.225
36.884
38.097
38.727
38.807
38.46
37.836
37.079
36.314
35.607
34.994
34.489
34.068
33.707
33.412
33.186
33.02
32.944
33.191
34.307
36.7
40.032
43.249
45.245
45.474
44.124
41.813
39.192
36.719
34.602
32.911
31.746
31.277
31.633
32.751
34.349
36.051
37.498
38.438
38.791
38.623
38.057
37.278
36.451
35.675
35.002
34.446
34.002
33.659
33.418
33.268
33.168
33.098
33.202
33.924
35.826
38.931
42.417
45.081
46.092
45.347
43.31
40.663
37.992
35.631
33.713
32.291
31.464
31.392
32.15
33.599
35.388
37.082
38.328
38.981
39.066
38.716
38.1
37.356
36.59
35.882
35.266
34.738
34.291
33.936
33.671
33.476
33.342
33.379
33.988
35.769
38.833
42.414
45.278
46.487
45.851
43.848
41.186
38.478
36.101
34.198
32.819
32.048
32.01
32.741
34.076
35.7
37.245
38.404
39.026
39.093
38.708
38.048
37.281
36.517
35.83
35.247
34.764
34.372
34.048
33.794
33.588
33.425
33.413
33.943
35.622
38.633
42.241
45.192
46.491
45.902
43.89
41.209
38.501
36.139
34.267
32.926
32.163
32.074
32.715
33.982
35.591
37.151
38.339
38.984
39.062
38.682
38.011
37.217
36.428
35.725
35.136
34.646
34.246
33.925
33.674
33.481
33.337
33.338
33.89
35.63
38.721
42.385
45.332
46.58
45.931
43.866
41.156
38.456
36.127
34.278
32.927
32.15
32.066
32.727
34.014
35.645
37.244
38.473
39.13
39.197
38.787
38.078
37.238
36.409
35.676
35.055
34.537
34.124
33.809
33.544
33.313
33.153
33.252
34.087
36.2
39.533
43.14
45.743
46.514
45.451
43.148
40.383
37.749
35.555
33.882
32.738
32.178
32.293
33.108
34.475
36.08
37.548
38.58
39.031
38.929
38.406
37.636
36.795
36.006
35.314
34.721
34.229
33.833
33.523
33.284
33.107
33.066
33.458
34.872
37.66
41.283
44.494
46.164
45.888
44.05
41.411
38.68
36.297
34.411
33.032
32.187
31.979
32.497
33.661
35.2
36.749
37.967
38.632
38.716
38.333
37.643
36.825
36.014
35.275
34.647
34.138
33.73
33.396
33.108
32.866
32.725
32.883
33.854
36.151
39.558
42.995
45.203
45.52
44.108
41.657
38.932
36.453
34.438
32.941
31.99
31.655
32.01
33.014
34.444
35.949
37.192
37.958
38.157
37.852
37.209
36.426
35.639
34.931
34.325
33.812
33.387
33.05
32.802
32.629
32.508
32.529
33.086
34.793
37.792
41.303
44.067
45.143
44.377
42.283
39.632
37.067
34.923
33.292
32.185
31.665
31.81
32.589
33.825
35.235
36.53
37.457
37.88
37.814
37.355
36.664
35.902
35.166
34.504
33.943
33.506
33.186
32.941
32.731
32.544
32.441
32.69
33.856
36.332
39.697
42.788
44.478
44.338
42.686
40.217
37.614
35.327
33.539
32.281
31.578
31.507
32.099
33.231
34.627
35.97
36.987
37.515
37.541
37.157
36.514
35.773
35.06
34.432
33.903
33.474
33.136
32.876
32.681
32.53
32.417
32.473
33.113
34.9
37.868
41.173
43.605
44.362
43.411
41.296
38.733
36.292
34.258
32.703
31.662
31.212
31.425
32.255
33.504
34.874
36.081
36.916
37.269
37.164
36.719
36.065
35.325
34.611
33.993
33.484
33.071
32.754
32.54
32.411
32.316
32.269
32.538
33.725
36.211
39.52
42.496
44.067
43.852
42.199
39.793
37.262
34.994
33.175
31.856
31.083
30.946
31.464
32.541
33.951
35.389
36.562
37.289
37.535
37.356
36.878
36.229
35.513
34.8
34.145
33.594
33.153
32.803
32.536
32.34
32.232
32.387
33.31
35.506
38.731
41.932
43.95
44.219
42.909
40.62
38.024
35.599
33.574
32.039
31.082
30.824
31.334
32.512
34.061
35.604
36.826
37.546
37.748
37.518
36.98
36.269
35.514
34.803
34.177
33.659
33.253
32.954
32.745
32.598
32.496
32.554
33.204
35.024
38.054
41.453
44.005
44.898
44.06
41.982
39.357
36.779
34.575
32.859
31.679
31.139
31.362
32.348
33.875
35.549
36.989
37.929
38.295
38.169
37.683
36.981
36.21
35.466
34.805
34.262
33.839
33.516
33.272
33.092
32.968
32.944
33.297
34.622
37.258
40.643
43.585
45.045
44.699
42.909
40.365
37.708
35.341
33.447
32.103
31.399
31.444
32.247
33.63
35.263
36.769
37.862
38.404
38.415
38.016
37.36
36.589
35.835
35.17
34.606
34.135
33.763
33.498
33.312
33.168
33.094
33.348
34.498
36.949
40.284
43.356
45.073
45.0
43.414
40.97
38.325
35.908
33.921
32.461
31.629
31.548
32.248
33.571
35.206
36.765
37.923
38.53
38.603
38.249
37.622
36.867
36.097
35.392
34.791
34.311
33.936
33.654
33.449
33.295
33.209
33.446
34.626
37.166
40.573
43.658
45.315
45.144
43.457
40.936
38.236
35.797
33.818
32.393
31.614
31.586
32.349
33.751
35.46
37.07
38.249
38.843
38.865
38.443
37.745
36.927
36.115
35.388
34.781
34.303
33.948
33.694
33.503
33.353
33.315
33.729
35.21
38.018
41.494
44.401
45.723
45.205
43.269
40.631
37.934
35.582
33.734
32.441
31.79
31.901
32.823
34.365
36.12
37.658
38.687
39.101
38.977
38.469
37.736
36.924
36.134
35.409
34.792
34.324
33.996
33.764
33.586
33.47
33.589
34.419
36.478
39.648
42.948
45.152
45.554
44.244
41.839
39.069
36.473
34.323
32.711
31.722
31.477
32.064
33.388
35.128
36.843
38.159
38.88
38.996
38.632
37.956
37.133
36.296
35.538
34.891
34.353
33.93
33.629
33.429
33.292
33.303
33.85
35.52
38.428
41.793
44.382
45.305
44.434
42.282
39.598
37.003
34.817
33.142
32.04
31.637
32.043
33.188
34.783
36.432
37.781
38.595
38.826
38.57
37.96
37.175
36.359
35.58
34.894
34.348
33.953
33.676
33.474
33.325
33.344
33.926
35.638
38.564
41.899
44.418
45.255
44.323
42.164
39.519
36.976
34.839
33.215
32.173
31.802
32.177
33.246
34.768
36.357
37.647
38.42
38.625
38.347
37.752
37.001
36.21
35.462
34.807
34.268
33.861
33.58
33.393
33.276
33.353
34.065
35.943
38.923
42.105
44.303
44.798
43.643
41.418
38.808
36.363
34.371
32.92
32.037
31.81
32.331
33.535
35.122
36.684
37.875
38.511
38.592
38.239
37.598
36.82
36.044
35.356
34.765
34.275
33.907
33.664
33.512
33.455
33.703
34.789
37.104
40.251
43.128
44.682
44.499
42.875
40.485
37.983
35.793
34.097
32.946
32.406
32.553
33.382
34.705
36.171
37.423
38.231
38.507
38.306
37.758
37.02
36.233
35.502
34.878
34.378
33.995
33.706
33.493
33.35
33.342
33.792
35.228
37.825
40.926
43.393
44.341
43.613
41.677
39.227
36.863
34.913
33.47
32.558
32.245
32.616
33.615
34.989
36.371
37.448
38.044
38.13
37.815
37.242
36.535
35.815
35.165
34.611
34.158
33.827
33.612
33.467
33.371
33.436
34.089
35.882
38.749
41.816
43.932
44.39
43.246
41.093
38.617
36.312
34.445
33.119
32.385
32.285
32.825
33.911
35.307
36.678
37.711
38.237
38.23
37.796
37.091
36.288
35.516
34.836
34.274
33.838
33.521
33.307
33.165
33.079
33.157
33.82
35.608
38.474
41.544
43.654
44.118
42.998
40.871
38.432
36.186
34.386
33.122
32.44
32.384
32.943
34.004
35.336
36.625
37.585
38.053
38.035
37.627
36.98
36.258
35.576
34.977
34.47
34.06
33.739
33.494
33.321
33.211
33.212
33.601
34.922
37.405
40.436
42.894
43.889
43.24
41.372
38.966
36.644
34.757
33.393
32.553
32.294
32.675
33.618
34.898
36.201
37.24
37.828
37.915
37.573
36.95
36.2
35.447
34.773
34.217
33.783
33.458
33.223
33.05
32.916
32.813
32.874
33.524
35.295
38.14
41.184
43.274
43.724
42.614
40.499
38.046
35.779
33.971
32.695
31.965
31.841
32.364
33.439
34.803
36.116
37.099
37.598
37.602
37.222
36.621
35.93
35.259
34.681
34.211
33.847
33.58
33.409
33.319
33.255
33.215
33.386
34.249
36.265
39.205
42.109
43.892
44.018
42.655
40.42
37.965
35.743
33.979
32.747
32.102
32.124
32.819
34.051
35.52
36.863
37.786
38.173
38.068
37.602
36.927
36.174
35.447
34.815
34.305
33.915
33.629
33.433
33.302
33.188
33.1
33.266
34.266
36.543
39.722
42.707
44.389
44.3
42.709
40.297
37.738
35.457
33.654
32.409
31.796
31.885
32.678
34.023
35.584
36.984
37.954
38.388
38.303
37.837
37.157
36.384
35.624
34.961
34.437
34.031
33.713
33.48
33.345
33.287
33.277
33.508
34.588
37.011
40.385
43.537
45.295
45.173
43.459
40.881
38.148
35.735
33.856
32.568
31.893
31.892
32.614
33.952
35.586
37.114
38.221
38.754
38.721
38.237
37.476
36.62
35.808
35.126
34.599
34.219
33.957
33.768
33.621
33.489
33.379
33.48
34.335
36.518
39.839
43.201
45.324
45.545
44.042
41.506
38.697
36.153
34.112
32.641
31.807
31.718
32.422
33.786
35.474
37.092
38.3
38.911
38.942
38.499
37.744
36.865
36.0
35.225
34.595
34.126
33.806
33.593
33.44
33.334
33.292
33.496
34.496
36.849
40.301
43.695
45.767
45.903
44.313
41.707
38.857
36.287
34.233
32.779
31.991
31.971
32.753
34.17
35.887
37.493
38.654
39.209
39.181
38.703
37.967
37.136
36.327
35.614
35.014
34.536
34.17
33.899
33.706
33.56
33.478
33.756
35.047
37.771
41.38
44.556
46.102
45.632
43.59
40.785
37.949
35.518
33.641
32.364
31.776
31.989
32.996
34.577
36.31
37.778
38.712
39.0
38.731
38.083
37.205
36.21
35.184
34.186
33.242
32.354
31.535
30.81
30.186
29.651
29.241
29.218
30.233
32.871
36.805
40.74
43.275
43.739
42.332
39.753
36.738
33.831
31.321
29.321
27.921
27.269
27.521
28.698
30.561
32.652
34.492
35.77
36.423
36.56
36.334
35.854
35.192
34.414
33.595
32.805
32.095
31.505
31.081
30.894
31.176
32.467
35.162
38.827
42.308
44.458
44.763
43.415
41.015
38.191
35.386
32.832
30.648
28.985
28.059
28.088
29.156
31.025
33.176
35.046
36.29
36.847
36.835
36.431
35.781
34.951
34.002
33.032
32.142
31.384
30.774
30.325
30.183
30.897
33.206
37.109
41.513
44.943
46.423
45.863
43.837
41.095
38.219
35.551
33.257
31.432
30.233
29.91
30.629
32.249
34.287
36.162
37.493
38.173
38.304
38.034
37.475
36.713
35.822
34.876
33.944
33.099
32.399
31.924
32.082
33.77
37.487
42.462
47.026
49.722
50.045
48.441
45.789
42.89
40.253
38.063
36.314
35.001
34.25
34.261
35.087
36.507
38.101
39.427
40.226
40.445
40.164
39.536
38.704
37.782
36.869
36.005
35.224
34.574
34.173
34.469
36.316
40.041
44.746
48.802
50.894
50.738
48.953
46.5
44.161
42.323
40.999
39.985
39.097
38.332
37.866
37.88
38.359
39.084
39.752
40.104
40.042
39.609
38.909
38.074
37.215
36.408
35.684
35.041
34.481
34.021
33.849
34.668
37.26
41.407
45.742
48.722
49.62
48.725
46.888
44.934
43.323
42.138
41.228
40.363
39.42
38.477
37.755
37.474
37.649
38.055
38.401
38.47
38.173
37.597
36.882
36.143
35.458
34.889
34.456
34.116
33.812
33.506
33.181
32.84
32.509
32.214
31.966
31.805
32.035
33.482
36.732
41.203
45.389
47.945
48.478
47.506
45.887
44.294
43.027
42.09
41.33
40.553
39.627
38.614
37.755
37.278
37.238
37.473
37.727
37.779
37.537
37.043
36.419
35.752
35.092
34.467
33.897
33.385
32.914
32.473
32.078
31.765
31.548
31.417
31.34
31.291
31.251
31.195
31.11
30.992
30.851
30.714
30.58
30.448
30.301
30.129
29.931
29.734
29.564
29.424
29.309
29.213
29.134
29.067
29.002
28.936
28.901
28.909
28.968
29.062
29.161
29.236
29.258
29.221
29.135
29.015
28.926
29.274
31.099
35.131
40.693
46.013
49.45
50.423
49.424
47.448
45.399
43.785
42.722
42.041
41.468
40.795
40.031
39.406
39.166
39.368
39.835
40.26
40.394
40.149
39.579
38.813
38.003
37.247
36.562
35.935
35.364
34.839
34.339
33.881
33.514
33.253
33.09
33.006
32.983
33.013
33.085
33.165
33.195
33.134
32.979
32.74
32.428
32.076
31.816
32.093
33.776
37.338
42.062
46.403
49.036
49.572
48.53
46.823
45.214
44.056
43.356
42.889
42.354
41.565
40.577
39.663
39.102
38.988
39.202
39.47
39.558
39.359
38.891
38.266
37.589
36.903
36.205
35.511
34.858
34.274
33.769
33.342
33.017
32.808
32.718
32.713
32.724
32.698
32.603
32.434
32.185
31.883
31.603
31.596
32.551
35.202
39.361
43.81
47.111
48.484
48.077
46.654
45.043
43.752
42.9
42.338
41.805
41.077
40.105
39.065
38.213
37.747
37.691
37.868
38.04
38.036
37.775
37.289
36.677
36.022
35.355
34.681
34.023
33.422
32.894
32.43
32.033
31.713
31.471
31.303
31.2
31.139
31.098
31.054
31.005
30.949
30.887
30.805
30.679
30.507
30.298
30.06
29.775
29.464
29.284
29.848
32.136
36.44
41.734
46.287
48.8
49.052
47.722
45.784
43.988
42.665
41.805
41.202
40.577
39.759
38.782
37.863
37.281
37.18
37.479
37.928
38.235
38.221
37.858
37.224
36.44
35.625
34.847
34.132
33.486
32.893
32.36
31.913
31.57
31.336
31.196
31.127
31.112
31.139
31.194
31.273
31.368
31.436
31.43
31.336
31.153
30.879
30.559
30.45
31.3
34.017
38.62
43.842
47.941
49.828
49.529
47.855
45.78
44.0
42.786
42.065
41.554
40.946
40.076
39.003
38.007
37.401
37.331
37.69
38.184
38.507
38.478
38.084
37.419
36.614
35.785
34.998
34.278
33.636
33.063
32.558
32.131
31.805
31.578
31.443
31.397
31.451
31.565
31.662
31.696
31.649
31.514
31.298
31.028
30.766
30.764
31.762
34.598
39.188
44.248
48.127
49.817
49.366
47.592
45.456
43.617
42.322
41.47
40.816
40.087
39.129
38.048
37.117
36.599
36.598
36.992
37.485
37.786
37.749
37.35
36.671
35.853
35.014
34.207
33.447
32.745
32.117
31.572
31.104
30.716
30.413
30.189
30.029
29.923
29.846
29.778
29.734
29.737
29.758
29.752
29.688
29.563
29.383
29.157
28.915
28.785
29.325
31.561
35.982
41.693
46.896
50.051
50.674
49.313
46.979
44.566
42.592
41.205
40.278
39.528
38.693
37.691
36.692
36.023
35.911
36.336
37.067
37.781
38.185
38.113
37.599
36.788
35.83
34.835
33.906
33.111
32.447
31.884
31.4
30.984
30.644
30.4
30.279
30.28
30.382
30.531
30.658
30.724
30.716
30.629
30.457
30.221
30.058
30.51
32.604
36.897
42.562
47.8
51.008
51.625
50.175
47.721
45.221
43.216
41.836
40.941
40.25
39.471
38.492
37.464
36.687
36.406
36.67
37.314
38.023
38.474
38.485
38.035
37.236
36.245
35.2
34.222
33.383
32.69
32.118
31.643
31.256
30.97
30.808
30.766
30.789
30.797
30.736
30.593
30.387
30.152
29.942
29.979
30.998
33.962
38.918
44.541
48.984
51.054
50.69
48.697
46.12
43.735
41.888
40.582
39.609
38.7
37.685
36.568
35.564
34.995
35.054
35.662
36.496
37.191
37.5
37.332
36.737
35.865
34.895
33.94
33.054
32.256
31.55
30.949
30.462
30.079
29.775
29.54
29.383
29.314
29.318
29.347
29.336
29.247
29.077
28.846
28.596
28.406
28.631
30.217
34.057
39.782
45.72
49.998
51.636
50.844
48.564
45.818
43.283
41.246
39.702
38.473
37.345
36.193
35.088
34.288
34.089
34.583
35.574
36.687
37.543
37.899
37.697
37.056
36.155
35.138
34.101
33.118
32.257
31.561
31.017
30.582
30.221
29.95
29.787
29.743
29.794
29.886
29.949
29.947
29.886
29.785
29.673
29.755
30.783
33.808
38.979
44.979
49.87
52.331
52.219
50.297
47.613
44.966
42.759
41.067
39.764
38.629
37.47
36.28
35.262
34.709
34.81
35.513
36.527
37.458
38.001
38.032
37.575
36.766
35.787
34.785
33.832
32.968
32.224
31.596
31.061
30.612
30.259
30.023
29.901
29.842
29.78
29.684
29.564
29.435
29.307
29.298
29.995
32.481
37.241
43.27
48.645
51.79
52.256
50.657
48.033
45.27
42.876
40.963
39.432
38.108
36.839
35.592
34.53
33.948
34.066
34.852
35.994
37.067
37.75
37.899
37.533
36.773
35.793
34.749
33.738
32.815
31.997
31.29
30.686
30.196
29.827
29.566
29.404
29.326
29.298
29.259
29.155
28.99
28.804
28.622
28.55
29.172
31.626
36.48
42.761
48.489
51.979
52.705
51.224
48.562
45.627
42.96
40.744
38.949
37.427
36.025
34.714
33.65
33.111
33.308
34.217
35.546
36.861
37.816
38.209
37.992
37.283
36.294
35.205
34.119
33.105
32.205
31.43
30.794
30.296
29.932
29.697
29.586
29.569
29.606
29.656
29.669
29.617
29.501
29.347
29.363
30.332
33.405
38.816
45.237
50.6
53.445
53.539
51.628
48.763
45.789
43.151
40.96
39.151
37.578
36.108
34.763
33.746
33.337
33.72
34.823
36.318
37.736
38.684
38.972
38.629
37.824
36.756
35.603
34.474
33.435
32.522
31.754
31.136
30.668
30.347
30.149
30.027
29.923
29.803
29.652
29.477
29.308
29.301
30.115
32.875
37.99
44.283
49.738
52.818
53.162
51.423
48.633
45.658
42.991
40.753
38.869
37.213
35.683
34.284
33.195
32.694
32.972
33.972
35.379
36.737
37.672
37.998
37.728
37.026
36.07
35.007
33.934
32.925
32.028
31.274
30.683
30.258
29.961
29.74
29.542
29.336
29.135
28.953
28.795
28.697
28.928
30.367
34.012
39.76
46.068
50.966
53.262
52.945
50.82
47.886
44.891
42.204
39.906
37.942
36.197
34.577
33.137
32.089
31.71
32.164
33.354
34.911
36.347
37.278
37.567
37.269
36.541
35.571
34.517
33.49
32.555
31.75
31.077
30.52
30.031
29.562
29.1
28.674
28.327
28.075
28.014
28.699
31.252
36.25
42.703
48.602
52.245
53.098
51.695
49.035
46.004
43.116
40.54
38.267
36.227
34.373
32.775
31.648
31.253
31.746
33.035
34.75
36.397
37.573
38.087
37.968
37.362
36.449
35.402
34.356
33.401
32.577
31.871
31.262
30.717
30.216
29.762
29.359
29.041
28.998
29.945
32.984
38.391
44.852
50.289
53.216
53.372
51.489
48.635
45.643
42.935
40.62
38.619
36.808
35.135
33.698
32.703
32.373
32.82
33.93
35.379
36.736
37.639
37.925
37.627
36.894
35.926
34.905
33.943
33.08
32.307
31.593
30.906
30.235
29.604
29.062
28.657
28.583
29.598
32.816
38.363
44.775
49.979
52.606
52.531
50.539
47.663
44.692
42.01
39.693
37.652
35.776
34.043
32.591
31.668
31.488
32.117
33.385
34.906
36.238
37.062
37.271
36.915
36.156
35.197
34.212
33.301
32.485
31.752
31.079
30.438
29.816
29.237
28.732
28.31
28.046
28.382
30.385
34.862
41.133
47.259
51.373
52.691
51.59
49.045
46.002
43.054
40.426
38.097
35.974
34.006
32.268
30.964
30.355
30.637
31.75
33.359
35.016
36.322
37.033
37.082
36.572
35.709
34.695
33.666
32.717
31.889
31.169
30.532
29.96
29.434
28.944
28.499
28.135
27.923
28.216
30.017
34.271
40.504
46.837
51.305
52.975
52.097
49.599
46.459
43.334
40.5
37.983
35.711
33.645
31.879
30.637
30.19
30.703
32.082
33.947
35.782
37.164
37.876
37.903
37.385
36.539
35.549
34.524
33.551
32.683
31.932
31.273
30.668
30.086
29.525
29.01
28.602
28.534
29.634
33.044
38.841
45.482
50.831
53.487
53.346
51.23
48.19
45.019
42.102
39.535
37.266
35.206
33.363
31.901
31.066
31.07
31.949
33.47
35.198
36.678
37.597
37.868
37.569
36.856
35.913
34.898
33.921
33.039
32.248
31.528
30.859
30.22
29.615
29.085
28.666
28.497
29.202
31.916
37.096
43.586
49.302
52.612
53.113
51.452
48.651
45.543
42.589
39.949
37.579
35.392
33.392
31.734
30.665
30.422
31.089
32.497
34.222
35.789
36.864
37.301
37.125
36.485
35.599
34.627
33.656
32.751
31.944
31.237
30.609
30.031
29.485
28.973
28.523
28.17
28.011
28.614
31.128
36.15
42.662
48.604
52.253
53.088
51.666
48.973
45.857
42.814
40.015
37.456
35.082
32.894
31.025
29.709
29.205
29.667
31.008
32.876
34.757
36.198
36.962
37.04
36.574
35.76
34.776
33.751
32.782
31.92
31.16
30.461
29.803
29.187
28.626
28.147
27.778
27.67
28.491
31.397
36.791
43.431
49.189
52.467
52.906
51.177
48.304
45.106
42.016
39.186
36.596
34.193
32.025
30.259
29.144
28.941
29.786
31.507
33.645
35.641
37.054
37.701
37.655
37.107
36.259
35.266
34.261
33.324
32.467
31.665
30.92
30.231
29.598
29.044
28.601
28.365
28.871
31.3
36.331
42.974
49.123
52.985
53.973
52.603
49.872
46.673
43.55
40.714
38.153
35.806
33.671
31.854
30.564
30.048
30.474
31.771
33.589
35.435
36.858
37.626
37.712
37.238
36.418
35.459
34.502
33.592
32.73
31.904
31.119
30.385
29.714
29.114
28.616
28.362
28.998
31.681
36.868
43.376
49.117
52.48
53.063
51.478
48.724
45.634
42.666
39.943
37.437
35.113
33.006
31.257
30.079
29.685
30.198
31.514
33.274
35.011
36.312
36.959
36.953
36.451
35.657
34.743
33.813
32.92
32.089
31.3
30.536
29.816
29.158
28.564
28.047
27.668
27.787
29.424
33.591
39.874
46.373
51.047
52.914
52.241
49.954
46.978
43.911
41.015
38.323
35.798
33.458
31.424
29.912
29.16
29.376
30.573
32.462
34.526
36.241
37.293
37.651
37.433
36.809
35.948
35.014
34.105
33.249
32.443
31.677
30.934
30.239
29.636
29.159
28.863
29.088
30.845
35.046
41.187
47.415
51.815
53.488
52.698
50.336
47.31
44.228
41.34
38.69
36.248
34.024
32.123
30.767
30.248
30.784
32.325
34.481
36.67
38.336
39.183
39.217
38.613
37.611
36.437
35.232
34.063
32.962
31.943
31.016
30.192
29.484
28.917
28.489
28.292
28.911
31.49
36.565
43.044
48.862
52.375
53.128
51.697
49.048
46.007
43.033
40.276
37.74
35.377
33.2
31.348
30.058
29.59
30.08
31.42
33.238
35.042
36.402
37.102
37.169
36.748
36.014
35.13
34.217
33.353
32.546
31.773
31.021
30.295
29.608
28.986
28.453
28.118
28.491
30.661
35.35
41.737
47.814
51.795
53.027
51.935
49.444
46.427
43.422
40.637
38.072
35.681
33.462
31.537
30.142
29.538
29.879
31.097
32.86
34.695
36.166
37.008
37.179
36.801
36.077
35.204
34.31
33.431
32.558
31.694
30.862
30.089
29.386
28.772
28.273
27.939
28.139
29.886
34.096
40.258
46.49
50.88
52.552
51.789
49.482
46.533
43.514
40.667
38.024
35.557
33.29
31.344
29.941
29.337
29.696
30.958
32.8
34.729
36.28
37.215
37.509
37.259
36.619
35.786
34.93
34.107
33.288
32.448
31.602
30.798
30.086
29.484
28.998
28.709
29.17
31.499
36.304
42.628
48.458
52.11
53.046
51.774
49.228
46.221
43.235
40.44
37.855
35.459
33.291
31.503
30.329
29.998
30.622
32.062
33.935
35.736
37.051
37.694
37.716
37.29
36.591
35.758
34.889
34.038
33.204
32.367
31.529
30.73
30.01
29.394
28.935
28.973
30.481
34.393
40.307
46.455
50.935
52.807
52.261
50.12
47.258
44.273
41.466
38.879
36.46
34.208
32.231
30.745
29.991
30.152
31.212
32.887
34.715
36.232
37.165
37.46
37.218
36.595
35.781
34.924
34.072
33.2
32.306
31.426
30.595
29.85
29.221
28.718
28.47
29.132
31.847
37.001
43.375
48.945
52.199
52.801
51.352
48.768
45.803
42.889
40.18
37.674
35.332
33.202
31.436
30.256
29.896
30.478
31.867
33.684
35.443
36.753
37.423
37.49
37.109
36.444
35.619
34.728
33.833
32.963
32.102
31.253
30.465
29.78
29.235
28.903
29.253
31.334
35.836
41.967
47.813
51.651
52.833
51.762
49.339
46.388
43.411
40.624
38.068
35.719
33.609
31.872
30.736
30.454
31.126
32.579
34.415
36.161
37.439
38.067
38.084
37.66
36.987
36.201
35.371
34.526
33.666
32.807
31.987
31.249
30.618
30.121
29.91
30.627
33.316
38.27
44.306
49.509
52.477
52.903
51.363
48.749
45.816
42.977
40.387
38.036
35.881
33.957
32.434
31.566
31.55
32.382
33.778
35.285
36.493
37.167
37.264
36.874
36.17
35.333
34.485
33.686
32.942
32.23
31.543
30.921
30.407
30.021
29.785
29.975
31.456
35.089
40.582
46.386
50.736
52.662
52.231
50.189
47.4
44.503
41.809
39.38
37.178
35.175
33.444
32.167
31.57
31.796
32.782
34.252
35.794
37.004
37.659
37.74
37.366
36.694
35.863
34.968
34.048
33.13
32.236
31.392
30.62
29.951
29.416
29.162
29.849
32.515
37.418
43.358
48.439
51.292
51.647
50.095
47.527
44.649
41.858
39.284
36.91
34.724
32.789
31.284
30.445
30.44
31.256
32.656
34.253
35.652
36.59
36.98
36.871
36.385
35.672
34.864
34.02
33.129
32.204
31.3
30.477
29.782
29.238
28.985
29.599
32.047
36.656
42.376
47.398
50.33
50.806
49.331
46.76
43.838
40.985
38.334
35.89
33.644
31.669
30.169
29.398
29.533
30.545
32.142
33.89
35.366
36.302
36.639
36.487
36.011
35.338
34.546
33.67
32.741
31.81
30.938
30.173
29.52
29.006
28.839
29.771
32.768
37.868
43.724
48.477
50.921
50.937
49.163
46.466
43.509
40.648
37.999
35.541
33.261
31.28
29.832
29.171
29.437
30.546
32.205
33.983
35.453
36.362
36.666
36.481
35.987
35.314
34.515
33.619
32.67
31.738
30.876
30.116
29.486
29.009
28.875
29.813
32.803
37.927
43.861
48.728
51.281
51.367
49.636
46.952
43.972
41.056
38.33
35.786
33.436
31.414
29.964
29.334
29.677
30.92
32.736
34.645
36.208
37.173
37.501
37.316
36.795
36.088
35.273
34.371
33.395
32.405
31.488
30.704
30.067
29.58
29.399
30.217
33.072
38.137
44.127
49.139
51.858
52.068
50.394
47.701
44.684
41.741
39.002
36.456
34.116
32.096
30.615
29.912
30.144
31.257
32.953
34.769
36.252
37.148
37.429
37.218
36.678
35.945
35.12
34.262
33.385
32.484
31.586
30.748
30.021
29.437
29.116
29.605
31.935
36.591
42.606
48.112
51.558
52.431
51.18
48.677
45.72
42.772
40.019
37.484
35.156
33.093
31.432
30.391
30.187
30.881
32.276
33.97
35.53
36.633
37.157
37.138
36.71
36.039
35.257
34.44
33.6
32.723
31.827
30.969
30.21
29.573
29.071
28.822
29.428
31.958
36.841
43.011
48.538
51.901
52.662
51.334
48.822
45.898
43.011
40.328
37.845
35.528
33.437
31.737
30.654
30.396
31.035
32.397
34.094
35.675
36.799
37.334
37.318
36.87
36.147
35.308
34.464
33.629
32.789
31.944
31.118
30.347
29.672
29.119
28.715
28.699
29.893
33.295
38.832
45.008
49.92
52.4
52.384
50.571
47.847
44.881
42.026
39.39
36.96
34.725
32.775
31.296
30.531
30.66
31.653
33.235
34.976
36.462
37.428
37.786
37.604
37.041
36.276
35.435
34.576
33.718
32.871
32.059
31.31
30.642
30.068
29.601
29.321
29.67
31.604
35.782
41.554
47.217
51.118
52.515
51.669
49.395
46.499
43.534
40.76
38.223
35.901
33.822
32.112
30.985
30.671
31.248
32.553
34.221
35.814
36.985
37.572
37.584
37.144
36.427
35.594
34.754
33.955
33.194
32.458
31.746
31.053
30.393
29.811
29.34
29.061
29.371
31.187
35.228
40.943
46.656
50.696
52.271
51.586
49.422
46.601
43.698
40.971
38.474
36.192
34.129
32.384
31.157
30.671
31.031
32.145
33.71
35.305
36.56
37.255
37.34
36.946
36.27
35.471
34.643
33.821
33.03
32.295
31.614
30.954
30.31
29.724
29.231
28.871
28.822
29.79
32.772
37.908
43.929
48.972
51.755
52.065
50.5
47.929
45.041
42.216
39.605
37.217
35.032
33.09
31.552
30.662
30.616
31.415
32.822
34.467
35.941
36.942
37.353
37.216
36.669
35.873
34.984
34.122
33.341
32.633
31.963
31.299
30.635
30.011
29.458
28.998
28.679
28.764
30.084
33.556
39.028
45.023
49.728
52.062
51.988
50.192
47.533
44.636
41.838
39.251
36.854
34.626
32.657
31.138
30.312
30.365
31.287
32.823
34.564
36.069
37.028
37.381
37.22
36.679
35.893
35.002
34.137
33.352
32.64
31.973
31.317
30.672
30.068
29.55
29.133
28.853
28.921
30.066
33.234
38.454
44.414
49.296
51.892
52.045
50.373
47.723
44.777
41.908
39.249
36.819
34.614
32.696
31.238
30.489
30.627
31.645
33.274
35.073
36.602
37.579
37.937
37.751
37.165
36.334
35.428
34.57
33.794
33.077
32.377
31.682
31.008
30.393
29.866
29.445
29.188
29.454
31.118
34.926
40.474
46.188
50.391
52.208
51.742
49.724
46.98
44.095
41.354
38.841
36.563
34.506
32.744
31.471
30.91
31.19
32.239
33.775
35.384
36.681
37.433
37.592
37.275
36.631
35.798
34.906
34.058
33.306
32.63
32.001
31.39
30.785
30.204
29.684
29.249
28.978
29.247
30.944
34.812
40.412
46.166
50.393
52.224
51.779
49.788
47.076
44.218
41.499
39.009
36.752
34.707
32.935
31.606
30.941
31.091
32.032
33.509
35.12
36.472
37.302
37.532
37.252
36.625
35.81
34.926
34.056
33.257
32.543
31.885
31.252
30.635
30.046
29.521
29.09
28.814
29.007
30.514
34.162
39.677
45.554
50.057
52.192
51.983
50.137
47.482
44.629
41.897
39.385
37.093
35.007
33.176
31.762
30.973
30.98
31.804
33.221
34.824
36.202
37.098
37.433
37.254
36.692
35.905
35.042
34.199
33.429
32.733
32.077
31.435
30.805
30.206
29.675
29.257
28.996
29.081
30.171
33.166
38.17
43.998
48.905
51.649
51.995
50.505
47.995
45.134
42.331
39.737
37.361
35.204
33.329
31.883
31.086
31.135
32.031
33.522
35.203
36.67
37.641
38.006
37.819
37.254
36.491
35.659
34.835
34.045
33.296
32.583
31.895
31.236
30.627
30.094
29.667
29.422
29.735
31.458
35.265
40.691
46.212
50.215
51.883
51.364
49.376
46.703
43.885
41.215
38.797
36.612
34.631
32.913
31.654
31.116
31.433
32.512
34.037
35.596
36.822
37.505
37.62
37.264
36.596
35.768
34.909
34.094
33.343
32.638
31.955
31.302
30.682
30.116
29.628
29.24
29.067
29.578
31.701
35.966
41.648
47.086
50.744
51.986
51.107
48.898
46.135
43.334
40.741
38.391
36.234
34.267
32.586
31.399
30.942
31.331
32.448
33.977
35.506
36.677
37.306
37.388
37.021
36.341
35.495
34.625
33.811
33.071
32.384
31.72
31.067
30.442
29.868
29.377
29.0
28.849
29.424
31.646
36.018
41.772
47.229
50.873
52.096
51.211
48.999
46.233
43.416
40.787
38.414
36.259
34.298
32.626
31.45
31.0
31.377
32.48
34.013
35.572
36.781
37.438
37.529
37.152
36.46
35.596
34.695
33.862
33.124
32.457
31.829
31.221
30.626
30.052
29.531
29.11
28.848
28.991
30.274
33.555
38.761
44.581
49.289
51.767
51.881
50.242
47.68
44.854
42.124
39.605
37.292
35.187
33.338
31.883
31.05
31.017
31.806
33.202
34.818
36.252
37.226
37.629
37.493
36.946
36.146
35.231
34.322
33.499
32.793
32.18
31.605
31.032
30.477
29.973
29.55
29.224
29.024
29.147
30.255
33.239
38.186
43.915
48.726
51.439
51.812
50.346
47.839
44.973
42.162
39.563
37.187
35.022
33.123
31.657
30.859
30.919
31.831
33.336
35.033
36.532
37.565
38.0
37.855
37.275
36.45
35.534
34.612
33.745
32.973
32.309
31.726
31.173
30.636
30.127
29.673
29.305
29.056
29.067
29.864
32.357
36.933
42.695
47.955
51.293
52.224
51.125
48.788
45.967
43.132
40.503
38.135
35.993
34.072
32.466
31.364
30.984
31.452
32.654
34.244
35.795
36.956
37.565
37.619
37.218
36.504
35.624
34.7
33.823
33.052
32.396
31.827
31.295
30.762
30.213
29.684
29.239
28.915
28.757
29.053
30.629
34.315
39.831
45.66
50.071
52.137
51.922
50.1
47.476
44.621
41.871
39.367
37.113
35.063
33.237
31.798
30.984
30.978
31.779
33.17
34.773
36.188
37.143
37.531
37.402
36.876
36.089
35.182
34.263
33.409
32.668
32.038
31.476
30.93
30.38
29.844
29.364
28.967
28.675
28.566
29.063
31.092
35.318
41.134
46.849
50.842
52.403
51.776
49.72
47.01
44.179
41.49
39.037
36.804
34.757
32.947
31.541
30.775
30.848
31.75
33.223
34.863
36.283
37.227
37.59
37.403
36.799
35.952
35.012
34.089
33.236
32.475
31.81
31.213
30.646
30.097
29.588
29.145
28.784
28.524
28.517
29.342
31.991
36.832
42.835
48.21
51.548
52.427
51.286
48.926
46.088
43.244
40.593
38.17
35.947
33.931
32.239
31.079
30.671
31.144
32.397
34.085
35.761
37.063
37.805
37.957
37.605
36.917
36.057
35.142
34.262
33.465
32.75
32.091
31.475
30.89
30.34
29.854
29.467
29.212
29.176
29.816
32.041
36.383
42.091
47.487
51.061
52.228
51.331
49.151
46.418
43.612
40.952
38.52
36.331
34.376
32.727
31.561
31.114
31.518
32.679
34.286
35.913
37.176
37.866
37.974
37.633
37.001
36.201
35.338
34.503
33.755
33.088
32.453
31.826
31.207
30.612
30.075
29.643
29.408
29.677
31.241
34.852
40.196
45.783
49.963
51.871
51.591
49.8
47.262
44.541
41.924
39.513
37.311
35.312
33.572
32.239
31.525
31.606
32.493
33.947
35.554
36.909
37.756
38.02
37.774
37.163
36.35
35.488
34.665
33.91
33.19
32.481
31.778
31.103
30.495
29.981
29.582
29.351
29.565
31.005
34.483
39.74
45.343
49.648
51.722
51.584
49.866
47.34
44.604
41.985
39.609
37.478
35.547
33.839
32.506
31.777
31.83
32.675
34.087
35.648
36.941
37.716
37.935
37.69
37.105
36.319
35.473
34.662
33.924
33.232
32.532
31.804
31.097
30.469
29.944
29.532
29.312
29.691
31.527
35.429
40.835
46.192
49.984
51.498
50.935
49.015
46.485
43.847
41.361
39.111
37.059
35.175
33.529
32.328
31.817
32.129
33.187
34.685
36.199
37.362
37.994
38.087
37.746
37.113
36.325
35.495
34.686
33.907
33.151
32.417
31.726
31.112
30.608
30.212
29.95
30.043
31.146
34.071
38.807
44.174
48.575
50.933
51.087
49.583
47.191
44.553
42.011
39.69
37.613
35.762
34.148
32.921
32.309
32.459
33.341
34.71
36.173
37.363
38.034
38.137
37.787
37.161
36.401
35.595
34.79
34.018
33.292
32.588
31.91
31.276
30.717
30.275
30.002
30.091
31.178
34.062
38.737
44.039
48.378
50.691
50.822
49.31
46.922
44.298
41.805
39.577
37.607
35.841
34.275
33.047
32.39
32.468
33.26
34.526
35.904
37.033
37.673
37.784
37.475
36.887
36.139
35.334
34.542
33.8
33.112
32.45
31.805
31.19
30.634
30.166
29.816
29.732
30.421
32.732
36.989
42.338
47.196
50.239
51.022
49.943
47.779
45.229
42.725
40.469
38.473
36.669
35.025
33.637
32.72
32.492
33.011
34.113
35.448
36.64
37.438
37.736
37.569
37.055
36.335
35.54
34.756
34.004
33.285
32.596
31.931
31.296
30.717
30.216
29.823
29.611
29.887
31.408
34.866
39.937
45.216
49.148
50.887
50.525
48.732
46.282
43.723
41.344
39.225
37.329
35.594
34.051
32.865
32.29
32.491
33.391
34.693
35.998
36.968
37.45
37.46
37.084
36.431
35.633
34.826
34.089
33.415
32.774
32.142
31.514
30.91
30.374
29.948
29.649
29.546
29.965
31.678
35.304
40.395
45.515
49.192
50.679
50.121
48.197
45.645
43.005
40.555
38.372
36.431
34.696
33.232
32.219
31.887
32.34
33.451
34.872
36.211
37.169
37.612
37.555
37.109
36.43
35.649
34.852
34.084
33.353
32.637
31.942
31.309
30.774
30.328
29.973
29.76
29.904
31.035
33.943
38.609
43.866
48.145
50.397
50.474
48.909
46.461
43.796
41.293
39.057
37.086
35.337
33.808
32.625
32.008
32.111
32.912
34.178
35.547
36.666
37.304
37.402
37.052
36.433
35.696
34.933
34.164
33.385
32.611
31.87
31.178
30.559
30.027
29.61
29.356
29.498
30.742
33.872
38.744
44.074
48.283
50.383
50.309
48.663
46.21
43.567
41.084
38.877
36.917
35.144
33.58
32.371
31.738
31.829
32.605
33.838
35.172
36.261
36.881
36.995
36.697
36.128
35.408
34.613
33.797
32.994
32.233
31.524
30.861
30.257
29.74
29.326
29.086
29.387
31.076
34.827
40.134
45.473
49.296
50.834
50.249
48.263
45.666
43.015
40.566
38.397
36.465
34.709
33.165
32.01
31.473
31.695
32.619
33.977
35.388
36.492
37.072
37.122
36.759
36.151
35.439
34.691
33.916
33.123
32.341
31.601
30.937
30.364
29.889
29.53
29.35
29.668
31.271
34.845
40.015
45.341
49.25
50.908
50.416
48.456
45.828
43.109
40.604
38.392
36.425
34.651
33.13
32.088
31.775
32.283
33.462
34.969
36.4
37.423
37.881
37.819
37.386
36.742
35.991
35.191
34.384
33.597
32.836
32.124
31.497
30.974
30.551
30.249
30.221
31.01
33.447
37.747
42.968
47.546
50.236
50.691
49.355
47.011
44.355
41.818
39.582
37.634
35.878
34.304
33.061
32.405
32.516
33.362
34.666
36.031
37.103
37.686
37.751
37.405
36.794
36.051
35.263
34.471
33.691
32.939
32.22
31.546
30.949
30.46
30.094
29.925
30.319
32.056
35.7
40.727
45.687
49.146
50.427
49.719
47.718
45.185
42.656
40.373
38.382
36.615
35.0
33.607
32.636
32.312
32.735
33.778
35.111
36.342
37.167
37.468
37.285
36.754
36.037
35.251
34.473
33.735
33.028
32.334
31.659
31.039
30.492
30.031
29.681
29.54
29.99
31.806
35.54
40.646
45.672
49.179
50.487
49.796
47.8
45.259
42.729
40.466
38.503
36.775
35.208
33.838
32.852
32.47
32.785
33.685
34.879
36.022
36.835
37.18
37.065
36.599
35.915
35.14
34.376
33.657
32.966
32.293
31.645
31.047
30.518
30.063
29.704
29.5
29.721
31.044
34.148
38.858
43.962
47.963
49.93
49.809
48.161
45.736
43.131
40.683
38.515
36.604
34.894
33.408
32.318
31.862
32.179
33.167
34.523
35.873
36.906
37.443
37.444
37.012
36.332
35.575
34.823
34.089
33.357
32.614
31.877
31.201
30.634
30.186
29.854
29.708
30.064
31.631
35.015
39.851
44.803
48.424
49.934
49.428
47.562
45.082
42.531
40.192
38.132
36.299
34.646
33.22
32.213
31.877
32.313
33.389
34.78
36.082
36.985
37.365
37.246
36.764
36.086
35.33
34.555
33.778
32.991
32.21
31.492
30.875
30.361
29.945
29.683
29.834
31.062
34.073
38.709
43.728
47.633
49.517
49.355
47.721
45.361
42.849
40.5
38.434
36.604
34.927
33.429
32.293
31.787
32.051
32.991
34.308
35.623
36.6
37.063
37.025
36.62
36.005
35.294
34.541
33.767
32.995
32.248
31.541
30.9
30.358
29.929
29.623
29.615
30.514
33.132
37.555
42.725
47.082
49.52
49.807
48.441
46.178
43.655
41.256
39.129
37.264
35.595
34.114
32.942
32.294
32.343
33.079
34.262
35.521
36.513
37.035
37.066
36.714
36.132
35.448
34.718
33.953
33.184
32.448
31.763
31.14
30.596
30.142
29.797
29.656
30.077
31.813
35.343
40.103
44.722
47.895
49.048
48.378
46.53
44.177
41.811
39.663
37.762
36.041
34.484
33.2
32.401
32.267
32.836
33.928
35.207
36.319
37.036
37.28
37.105
36.641
36.014
35.315
34.582
33.82
33.046
32.296
31.611
31.022
30.548
30.211
30.082
30.486
32.115
35.419
39.882
44.236
47.244
48.337
47.703
45.958
43.739
41.469
39.381
37.527
35.861
34.364
33.137
32.401
32.354
33.007
34.153
35.439
36.51
37.127
37.253
37.0
36.521
35.916
35.221
34.453
33.659
32.881
32.167
31.552
31.048
30.652
30.379
30.415
31.327
33.78
37.711
42.122
45.703
47.586
47.664
46.396
44.425
42.268
40.239
38.436
36.819
35.332
34.023
33.072
32.706
33.017
33.892
35.041
36.111
36.844
37.13
37.015
36.628
36.078
35.428
34.724
34.001
33.281
32.597
31.974
31.431
30.97
30.595
30.395
30.716
32.248
35.433
39.785
44.059
47.053
48.212
47.708
46.126
44.094
42.046
40.191
38.577
37.155
35.859
34.728
33.951
33.734
34.134
34.99
36.007
36.864
37.345
37.417
37.151
36.653
36.032
35.363
34.693
34.045
33.409
32.79
32.204
31.666
31.199
30.837
30.657
30.882
32.059
34.722
38.674
42.883
46.127
47.674
47.522
46.166
44.233
42.204
40.34
38.722
37.3
35.989
34.82
33.988
33.711
34.058
34.902
35.947
36.871
37.459
37.627
37.42
36.954
36.359
35.73
35.106
34.479
33.832
33.181
32.562
32.022
31.589
31.273
31.104
31.239
32.146
34.391
37.945
41.94
45.208
46.953
47.049
45.884
44.062
42.073
40.224
38.631
37.245
35.976
34.838
34.009
33.703
34.011
34.802
35.79
36.658
37.183
37.308
37.099
36.671
36.121
35.508
34.885
34.264
33.646
33.045
32.481
31.974
31.531
31.169
30.923
30.919
31.549
33.415
36.679
40.663
44.213
46.392
46.891
46.0
44.291
42.325
40.475
38.879
37.49
36.211
35.048
34.136
33.667
33.764
34.381
35.285
36.17
36.784
37.003
36.848
36.411
35.818
35.173
34.549
33.986
33.484
33.016
32.55
32.079
31.624
31.208
30.848
30.578
30.482
30.889
32.446
35.526
39.65
43.655
46.426
47.474
46.969
45.456
43.514
41.575
39.861
38.392
37.098
35.911
34.854
34.083
33.785
34.046
34.764
35.691
36.538
37.075
37.191
36.913
36.362
35.686
35.009
34.398
33.863
33.361
32.86
32.352
31.848
31.367
30.942
30.604
30.372
30.322
30.776
32.371
35.483
39.634
43.665
46.463
47.52
46.995
45.422
43.392
41.336
39.489
37.89
36.474
35.203
34.147
33.493
33.412
33.923
34.854
35.898
36.765
37.269
37.367
37.1
36.567
35.912
35.26
34.658
34.095
33.533
32.957
32.374
31.822
31.339
30.939
30.637
30.492
30.718
31.873
34.507
38.426
42.6
45.818
47.368
47.232
45.877
43.908
41.816
39.879
38.184
36.698
35.346
34.147
33.268
32.943
33.281
34.149
35.255
36.258
36.896
37.064
36.801
36.265
35.617
34.954
34.33
33.767
33.243
32.713
32.17
31.627
31.116
30.668
30.305
30.055
30.023
30.638
32.623
36.248
40.778
44.894
47.517
48.262
47.43
45.628
43.448
41.307
39.393
37.721
36.227
34.878
33.76
33.054
32.931
33.426
34.373
35.481
36.443
37.023
37.129
36.819
36.216
35.474
34.73
34.069
33.497
32.965
32.427
31.874
31.329
30.814
30.359
29.985
29.73
29.738
30.523
32.848
36.875
41.71
45.917
48.423
48.94
47.865
45.872
43.571
41.337
39.339
37.605
36.069
34.681
33.518
32.778
32.665
33.228
34.295
35.53
36.573
37.194
37.343
37.082
36.525
35.804
35.046
34.344
33.726
33.148
32.552
31.936
31.347
30.831
30.399
30.061
29.864
30.007
31.078
33.763
38.004
42.741
46.569
48.572
48.638
47.242
45.039
42.601
40.263
38.148
36.262
34.594
33.192
32.202
31.836
32.212
33.222
34.553
35.826
36.754
37.191
37.133
36.686
36.025
35.311
34.636
34.004
33.379
32.734
32.069
31.423
30.844
30.371
30.013
29.793
29.906
30.989
33.771
38.154
43.002
46.865
48.813
48.769
47.264
44.989
42.48
40.044
37.809
35.804
34.018
32.496
31.398
30.963
31.334
32.419
33.898
35.342
36.407
36.933
36.933
36.527
35.894
35.173
34.444
33.741
33.063
32.392
31.718
31.068
30.489
30.002
29.614
29.413
29.838
31.757
35.669
40.884
45.853
49.195
50.349
49.579
47.569
45.046
42.492
40.13
38.033
36.169
34.492
33.054
32.042
31.682
32.094
33.178
34.614
35.998
36.99
37.426
37.333
36.858
36.172
35.399
34.608
33.826
33.061
32.317
31.595
30.931
30.349
29.85
29.454
29.29
29.88
32.131
36.412
41.842
46.789
49.919
50.784
49.763
47.611
45.027
42.434
40.043
37.912
36.011
34.321
32.921
32.013
31.832
32.457
33.713
35.233
36.594
37.487
37.826
37.69
37.224
36.574
35.83
35.042
34.234
33.426
32.635
31.894
31.24
30.699
30.267
29.962
29.971
30.885
33.511
37.931
43.082
47.411
49.794
49.992
48.501
46.062
43.333
40.69
38.262
36.057
34.065
32.356
31.129
30.633
31.018
32.202
33.841
35.466
36.686
37.32
37.394
37.055
36.478
35.783
35.022
34.231
33.438
32.661
31.918
31.227
30.6
30.062
29.663
29.532
30.162
32.4
36.603
41.921
46.746
49.739
50.455
49.282
46.99
44.288
41.611
39.147
36.93
34.922
33.14
31.74
30.979
31.067
31.998
33.505
35.17
36.565
37.417
37.663
37.406
36.832
36.114
35.344
34.559
33.764
32.968
32.192
31.47
30.825
30.266
29.813
29.537
29.811
31.52
35.341
40.74
46.131
49.918
51.354
50.648
48.558
45.867
43.129
40.603
38.338
36.321
34.534
33.028
31.987
31.633
32.075
33.21
34.707
36.155
37.217
37.724
37.691
37.265
36.621
35.88
35.112
34.337
33.554
32.774
32.027
31.347
30.754
30.262
29.889
29.772
30.426
32.73
37.02
42.401
47.227
50.159
50.776
49.505
47.138
44.392
41.702
39.229
36.997
34.981
33.219
31.871
31.2
31.416
32.491
34.106
35.792
37.121
37.855
38.005
37.72
37.157
36.443
35.659
34.841
34.011
33.185
32.381
31.641
31.0
30.473
30.075
29.879
30.257
32.029
35.743
40.822
45.76
49.114
50.243
49.377
47.225
44.531
41.806
39.289
37.044
35.042
33.286
31.9
31.129
31.181
32.068
33.532
35.136
36.462
37.252
37.458
37.203
36.667
35.994
35.265
34.513
33.732
32.934
32.166
31.458
30.825
30.284
29.859
29.617
29.927
31.63
35.355
40.571
45.753
49.354
50.642
49.848
47.732
45.071
42.398
39.951
37.781
35.86
34.174
32.818
31.966
31.809
32.415
33.634
35.11
36.447
37.354
37.695
37.514
36.979
36.279
35.536
34.785
34.025
33.253
32.486
31.758
31.095
30.53
30.082
29.788
29.901
31.18
34.426
39.433
44.829
48.977
50.899
50.601
48.769
46.224
43.576
41.133
38.986
37.1
35.406
33.934
32.858
32.416
32.748
33.77
35.176
36.554
37.549
37.977
37.876
37.406
36.74
36.009
35.253
34.473
33.69
32.934
32.222
31.581
31.038
30.606
30.307
30.257
30.934
33.15
37.201
42.273
46.853
49.647
50.21
48.95
46.639
43.99
41.438
39.133
37.081
35.243
33.657
32.508
32.042
32.392
33.458
34.912
36.326
37.36
37.863
37.845
37.42
36.753
36.005
35.254
34.501
33.721
32.925
32.168
31.489
30.924
30.485
30.192
30.129
30.697
32.677
36.499
41.48
46.139
49.12
49.893
48.784
46.552
43.925
41.362
39.05
37.003
35.169
33.565
32.348
31.773
32.008
32.982
34.384
35.786
36.838
37.378
37.417
37.055
36.435
35.696
34.931
34.183
33.452
32.728
32.019
31.359
30.781
30.31
29.957
29.82
30.345
32.363
36.318
41.485
46.311
49.416
50.269
49.201
46.983
44.371
41.842
39.596
37.645
35.914
34.366
33.103
32.337
32.274
32.937
34.115
35.459
36.609
37.307
37.474
37.18
36.578
35.842
35.08
34.318
33.571
32.837
32.123
31.462
30.875
30.378
29.985
29.747
29.998
31.53
35.01
40.052
45.224
48.962
50.45
49.826
47.814
45.237
42.684
40.421
38.482
36.784
35.238
33.869
32.851
32.436
32.751
33.69
34.957
36.173
37.024
37.36
37.216
36.733
36.075
35.353
34.603
33.845
33.09
32.345
31.642
31.019
30.494
30.057
29.728
29.624
30.182
32.199
36.097
41.185
45.962
49.05
49.88
48.763
46.484
43.798
41.199
38.889
36.866
35.057
33.453
32.215
31.58
31.724
32.617
33.995
35.448
36.6
37.234
37.334
37.017
36.439
35.729
34.979
34.224
33.456
32.682
31.932
31.235
30.626
30.128
29.763
29.608
29.992
31.668
35.222
40.188
45.137
48.596
49.843
49.07
46.985
44.362
41.73
39.324
37.18
35.254
33.528
32.102
31.215
31.108
31.828
33.149
34.67
35.983
36.815
37.101
36.913
36.386
35.678
34.91
34.134
33.37
32.621
31.886
31.186
30.56
30.027
29.598
29.34
29.546
30.97
34.319
39.305
44.55
48.473
50.166
49.688
47.722
45.081
42.366
39.871
37.668
35.72
33.982
32.506
31.491
31.173
31.661
32.82
34.311
35.714
36.692
37.101
36.991
36.518
35.831
35.053
34.272
33.504
32.742
31.989
31.277
30.626
30.043
29.539
29.146
28.975
29.47
31.495
35.564
40.97
46.105
49.5
50.553
49.581
47.37
44.674
41.99
39.556
37.404
35.473
33.721
32.239
31.248
30.998
31.57
32.796
34.319
35.722
36.677
37.045
36.886
36.363
35.642
34.852
34.069
33.333
32.649
31.983
31.318
30.675
30.08
29.577
29.178
28.904
28.935
29.898
32.675
37.416
43.006
47.755
50.421
50.723
49.185
46.637
43.785
41.054
38.604
36.424
34.465
32.742
31.407
30.709
30.844
31.796
33.289
34.907
36.263
37.096
37.329
37.069
36.507
35.818
35.089
34.324
33.514
32.683
31.863
31.107
30.449
29.901
29.462
29.187
29.394
30.89
34.409
39.591
44.968
48.918
50.57
50.023
47.988
45.278
42.488
39.921
37.634
35.574
33.708
32.118
30.997
30.567
30.95
32.061
33.587
35.113
36.288
36.899
36.944
36.57
35.947
35.207
34.422
33.607
32.773
31.953
31.172
30.457
29.837
29.318
28.944
28.937
30.012
33.046
38.008
43.603
48.104
50.393
50.368
48.654
46.07
43.26
40.584
38.174
36.025
34.087
32.382
31.054
30.345
30.442
31.334
32.769
34.352
35.691
36.541
36.842
36.677
36.191
35.515
34.73
33.892
33.036
32.197
31.403
30.668
30.012
29.448
29.004
28.809
29.404
31.76
36.294
42.054
47.272
50.496
51.273
50.043
47.642
44.825
42.04
39.475
37.174
35.112
33.284
31.803
30.868
30.677
31.297
32.579
34.176
35.666
36.723
37.211
37.155
36.711
36.052
35.29
34.472
33.612
32.729
31.864
31.074
30.39
29.809
29.335
29.054
29.374
31.181
35.101
40.545
45.907
49.623
50.982
50.206
48.042
45.277
42.456
39.837
37.461
35.289
33.328
31.702
30.648
30.406
31.053
32.418
34.126
35.751
36.942
37.529
37.561
37.205
36.621
35.891
35.047
34.134
33.214
32.34
31.54
30.848
30.279
29.841
29.615
30.041
31.974
35.916
41.17
46.155
49.434
50.416
49.388
47.098
44.294
41.464
38.828
36.44
34.281
32.391
30.948
30.195
30.309
31.286
32.876
34.658
36.192
37.207
37.634
37.563
37.155
36.54
35.795
34.944
34.009
33.061
32.183
31.417
30.758
30.199
29.821
29.979
31.499
35.068
40.25
45.531
49.323
50.827
50.181
48.094
45.348
42.522
39.871
37.444
35.225
33.253
31.674
30.732
30.643
31.431
32.886
34.606
36.155
37.222
37.727
37.737
37.366
36.737
35.946
35.071
34.163
33.256
32.378
31.572
30.875
30.3
29.895
29.954
31.25
34.554
39.608
45.003
49.087
50.909
50.504
48.554
45.88
43.077
40.447
38.062
35.893
33.944
32.335
31.277
30.995
31.579
32.871
34.502
36.045
37.158
37.691
37.688
37.293
36.655
35.895
35.084
34.249
33.403
32.564
31.766
31.054
30.445
29.956
29.652
29.905
31.556
35.273
40.585
45.954
49.776
51.245
50.532
48.387
45.64
42.866
40.338
38.095
36.057
34.205
32.656
31.643
31.402
32.004
33.276
34.85
36.315
37.339
37.79
37.728
37.284
36.594
35.787
34.962
34.171
33.408
32.656
31.919
31.23
30.616
30.099
29.7
29.591
30.387
32.989
37.613
43.206
48.059
50.854
51.266
49.807
47.313
44.51
41.844
39.466
37.346
35.424
33.726
32.407
31.697
31.778
32.632
34.01
35.519
36.773
37.539
37.755
37.486
36.886
36.132
35.349
34.603
33.902
33.209
32.504
31.801
31.133
30.537
30.045
29.682
29.505
29.803
31.331
34.8
39.911
45.249
49.205
50.887
50.368
48.338
45.609
42.776
40.157
37.838
35.763
33.886
32.304
31.282
31.071
31.733
33.083
34.74
36.261
37.302
37.75
37.666
37.197
36.508
35.725
34.934
34.185
33.476
32.782
32.094
31.422
30.8
30.254
29.812
29.508
29.481
30.258
32.685
37.05
42.45
47.26
50.164
50.743
49.409
46.986
44.202
41.495
39.056
36.896
34.956
33.242
31.887
31.124
31.155
31.995
33.404
34.975
36.303
37.125
37.363
37.102
36.52
35.784
35.002
34.232
33.488
32.759
32.054
31.378
30.733
30.142
29.625
29.225
29.037
29.46
31.337
35.23
40.539
45.709
49.254
50.518
49.721
47.591
44.898
42.184
39.693
37.473
35.502
33.752
32.279
31.269
30.945
31.409
32.534
33.996
35.407
36.451
36.96
36.94
36.516
35.856
35.089
34.304
33.543
32.806
32.082
31.368
30.691
30.073
29.532
29.08
28.772
28.895
30.215
33.532
38.634
44.151
48.45
50.562
50.459
48.742
46.196
43.438
40.826
38.495
36.423
34.545
32.885
31.604
30.942
31.078
31.983
33.418
34.998
36.315
37.11
37.331
37.092
36.555
35.854
35.072
34.269
33.465
32.663
31.885
31.165
30.529
29.991
29.557
29.274
29.411
30.692
33.878
38.791
44.112
48.245
50.238
50.063
48.325
45.791
43.046
40.409
38.003
35.848
33.949
32.364
31.257
30.848
31.268
32.417
33.983
35.542
36.721
37.344
37.427
37.095
36.502
35.774
34.986
34.184
33.395
32.613
31.849
31.14
30.512
29.989
29.597
29.44
29.956
31.999
36.024
41.298
46.257
49.512
50.53
49.609
47.454
44.779
42.075
39.562
37.299
35.279
33.509
32.079
31.185
31.035
31.698
32.992
34.553
35.988
37.002
37.451
37.353
36.866
36.185
35.441
34.687
33.924
33.146
32.364
31.599
30.893
30.27
29.752
29.398
29.45
30.608
33.681
38.579
44.027
48.389
50.619
50.611
48.946
46.419
43.665
41.049
38.702
36.617
34.751
33.122
31.881
31.268
31.453
32.397
33.832
35.367
36.631
37.38
37.56
37.266
36.671
35.945
35.179
34.406
33.624
32.832
32.045
31.3
30.64
30.086
29.645
29.402
29.767
31.595
35.478
40.837
46.103
49.756
51.116
50.397
48.317
45.643
42.917
40.414
38.187
36.2
34.433
32.956
31.953
31.634
32.089
33.204
34.661
36.065
37.102
37.622
37.619
37.194
36.504
35.714
34.927
34.156
33.382
32.601
31.847
31.151
30.534
30.008
29.597
29.391
29.78
31.594
35.424
40.704
45.894
49.493
50.817
50.089
48.027
45.373
42.653
40.118
37.838
35.797
33.98
32.476
31.494
31.268
31.872
33.149
34.736
36.214
37.275
37.781
37.745
37.283
36.575
35.789
35.019
34.278
33.551
32.822
32.098
31.411
30.787
30.263
29.875
29.669
29.854
31.102
34.191
39.012
44.303
48.475
50.532
50.389
48.635
46.044
43.265
40.667
38.338
36.234
34.335
32.71
31.541
31.067
31.427
32.546
34.115
35.698
36.917
37.571
37.658
37.308
36.677
35.911
35.118
34.338
33.569
32.808
32.063
31.343
30.68
30.114
29.667
29.366
29.418
30.488
33.415
38.203
43.648
48.106
50.47
50.578
48.986
46.496
43.754
41.115
38.723
36.58
34.649
32.969
31.693
31.05
31.207
32.146
33.614
35.209
36.53
37.313
37.503
37.221
36.645
35.911
35.112
34.313
33.541
32.805
32.091
31.399
30.737
30.14
29.641
29.268
29.15
29.789
32.086
36.441
41.984
47.057
50.278
51.161
50.059
47.753
44.994
42.265
39.772
37.547
35.548
33.759
32.287
31.338
31.121
31.714
32.98
34.57
36.052
37.096
37.566
37.487
37.005
36.29
35.486
34.678
33.897
33.145
32.421
31.73
31.083
30.486
29.952
29.502
29.183
29.254
30.458
33.638
38.695
44.308
48.797
51.097
51.098
49.416
46.879
44.138
41.528
39.156
37.021
35.099
33.418
32.122
31.427
31.505
32.352
33.739
35.283
36.604
37.443
37.707
37.463
36.872
36.11
35.296
34.497
33.736
33.019
32.34
31.686
31.06
30.475
29.968
29.574
29.346
29.519
30.79
33.955
38.918
44.401
48.766
50.971
50.915
49.184
46.563
43.699
40.978
38.54
36.377
34.44
32.764
31.538
31.012
31.335
32.44
34.032
35.691
37.033
37.814
37.986
37.681
37.078
36.314
35.492
34.67
33.868
33.083
32.323
31.605
30.946
30.371
29.915
29.613
29.621
30.506
33.115
37.644
43.075
47.782
50.537
51.012
49.666
47.272
44.516
41.814
39.35
37.165
35.212
33.482
32.097
31.279
31.241
32.011
33.377
34.969
36.38
37.311
37.646
37.453
36.89
36.132
35.321
34.52
33.751
33.009
32.285
31.574
30.899
30.291
29.772
29.37
29.189
29.688
31.749
35.872
41.333
46.523
49.987
51.127
50.222
48.023
45.292
42.534
39.998
37.744
35.731
33.92
32.383
31.329
30.997
31.487
32.675
34.213
35.704
36.822
37.392
37.408
36.995
36.337
35.573
34.775
33.977
33.18
32.392
31.623
30.898
30.24
29.671
29.203
28.895
29.065
30.532
34.085
39.413
45.045
49.313
51.28
50.999
49.144
46.52
43.725
41.063
38.651
36.499
34.592
32.956
31.741
31.171
31.403
32.384
33.846
35.423
36.74
37.545
37.782
37.537
36.97
36.233
35.431
34.62
33.821
33.028
32.248
31.503
30.817
30.222
29.753
29.45
29.492
30.493
33.29
37.979
43.46
48.101
50.71
51.026
49.556
47.083
44.284
41.558
39.07
36.851
34.878
33.166
31.866
31.208
31.363
32.291
33.729
35.306
36.649
37.503
37.778
37.547
36.982
36.252
35.468
34.675
33.884
33.093
32.325
31.611
30.968
30.409
29.955
29.641
29.642
30.572
33.284
37.908
43.351
47.968
50.565
50.87
49.394
46.944
44.194
41.537
39.12
36.959
35.016
33.32
32.011
31.303
31.367
32.186
33.539
35.067
36.389
37.255
37.572
37.385
36.849
36.138
35.371
34.596
33.821
33.032
32.239
31.479
30.793
30.198
29.707
29.34
29.248
29.974
32.391
36.82
42.32
47.218
50.188
50.844
49.615
47.277
44.525
41.818
39.344
37.106
35.085
33.312
31.904
31.058
30.955
31.641
32.942
34.504
35.913
36.872
37.285
37.192
36.717
36.02
35.238
34.453
33.706
32.991
32.282
31.565
30.869
30.252
29.747
29.376
29.195
29.534
31.193
34.845
40.079
45.427
49.321
50.94
50.404
48.411
45.742
42.955
40.345
38.007
35.916
34.044
32.472
31.406
31.08
31.589
32.803
34.39
35.952
37.139
37.763
37.831
37.481
36.878
36.153
35.38
34.573
33.737
32.905
32.123
31.425
30.816
30.306
29.918
29.777
30.375
32.557
36.692
41.989
46.887
50.029
50.91
49.854
47.593
44.86
42.143
39.663
37.456
35.479
33.724
32.271
31.318
31.076
31.612
32.781
34.271
35.706
36.767
37.289
37.278
36.857
36.201
35.475
34.774
34.11
33.456
32.787
32.118
31.488
30.924
30.453
30.114
30.075
30.884
33.387
37.831
43.254
48.026
50.867
51.402
50.083
47.703
44.977
42.343
39.978
37.899
36.049
34.398
33.058
32.259
32.198
32.909
34.177
35.624
36.86
37.631
37.876
37.668
37.145
36.455
35.714
34.977
34.242
33.481
32.706
31.967
31.313
30.768
30.337
30.038
29.975
30.609
32.796
36.944
42.263
47.152
50.232
50.997
49.803
47.435
44.656
41.965
39.593
37.572
35.819
34.276
33.005
32.21
32.089
32.692
33.858
35.265
36.552
37.438
37.794
37.644
37.105
36.33
35.464
34.622
33.844
33.11
32.378
31.636
30.911
30.252
29.707
29.304
29.086
29.245
30.43
33.458
38.266
43.599
47.838
49.953
49.868
48.182
45.689
43.007
40.481
38.235
36.246
34.469
32.933
31.789
31.265
31.516
32.494
33.924
35.408
36.586
37.244
37.353
37.031
36.435
35.687
34.888
34.115
33.401
32.734
32.085
31.445
30.838
30.293
29.838
29.503
29.335
29.521
30.645
33.431
37.86
42.827
46.856
48.965
48.993
47.441
45.04
42.387
39.856
37.588
35.55
33.696
32.087
30.933
30.482
30.861
31.973
33.501
35.035
36.216
36.84
36.899
36.521
35.886
35.146
34.399
33.694
33.039
32.423
31.826
31.236
30.653
30.108
29.631
29.253
29.036
29.236
30.544
33.676
38.43
43.522
47.446
49.34
49.197
47.594
45.246
42.707
40.281
38.072
36.073
34.268
32.732
31.632
31.182
31.512
32.553
34.011
35.486
36.629
37.267
37.385
37.074
36.49
35.77
35.016
34.29
33.599
32.921
32.243
31.572
30.954
30.433
30.03
29.758
29.69
30.201
32.085
35.827
40.787
45.506
48.662
49.719
48.946
47.017
44.615
42.199
39.974
38.014
36.302
34.814
33.639
32.962
32.952
33.629
34.806
36.147
37.293
37.99
38.163
37.885
37.306
36.567
35.772
34.996
34.269
33.577
32.909
32.257
31.642
31.098
30.651
30.307
30.117
30.39
31.869
35.174
39.896
44.691
48.154
49.569
49.067
47.284
44.921
42.477
40.208
38.196
36.426
34.832
33.421
32.345
31.843
32.068
32.97
34.279
35.624
36.685
37.279
37.368
37.028
36.401
35.646
34.882
34.162
33.484
32.829
32.176
31.539
30.936
30.397
29.952
29.626
29.486
29.887
31.616
35.216
40.124
44.929
48.28
49.558
48.968
47.17
44.843
42.455
40.248
38.276
36.504
34.898
33.489
32.433
31.947
32.18
33.08
34.377
35.702
36.738
37.311
37.375
37.007
36.364
35.603
34.835
34.119
33.464
32.851
32.259
31.672
31.103
30.571
30.108
29.749
29.549
29.73
30.95
33.954
38.583
43.604
47.541
49.514
49.497
48.046
45.869
43.496
41.232
39.207
37.425
35.82
34.36
33.156
32.429
32.371
33.013
34.163
35.478
36.609
37.319
37.539
37.326
36.797
36.089
35.338
34.622
33.961
33.331
32.699
32.053
31.425
30.856
30.386
30.036
29.835
29.922
30.833
33.323
37.476
42.293
46.338
48.602
48.897
47.692
45.67
43.373
41.129
39.074
37.233
35.573
34.101
32.931
32.269
32.286
32.99
34.189
35.536
36.676
37.382
37.588
37.365
36.841
36.158
35.42
34.7
34.036
33.414
32.809
32.204
31.606
31.049
30.565
30.187
29.97
30.131
31.292
34.132
38.483
43.181
46.843
48.643
48.587
47.214
45.163
42.911
40.745
38.8
37.078
35.517
34.114
33.018
32.486
32.7
33.63
35.016
36.461
37.609
38.265
38.394
38.069
37.445
36.689
35.908
35.156
34.449
33.775
33.121
32.488
31.896
31.382
30.957
30.64
30.535
31.076
33.031
36.715
41.392
45.672
48.398
49.189
48.371
46.577
44.393
42.186
40.137
38.299
36.657
35.199
33.951
33.055
32.705
33.01
33.887
35.06
36.187
37.003
37.382
37.31
36.862
36.179
35.405
34.653
33.971
33.34
32.735
32.137
31.542
30.978
30.481
30.072
29.761
29.614
29.967
31.588
35.037
39.797
44.476
47.743
49.034
48.55
46.891
44.685
42.375
40.196
38.232
36.471
34.893
33.552
32.581
32.154
32.381
33.214
34.42
35.659
36.633
37.174
37.251
36.924
36.326
35.596
34.837
34.119
33.465
32.851
32.259
31.679
31.124
30.611
30.158
29.786
29.527
29.527
30.301
32.642
36.745
41.685
46.0
48.592
49.188
48.191
46.251
43.94
41.606
39.435
37.487
35.739
34.163
32.821
31.89
31.608
32.074
33.166
34.575
35.904
36.836
37.244
37.184
36.78
36.144
35.377
34.586
33.861
33.24
32.69
32.164
31.632
31.096
30.588
30.148
29.799
29.578
29.625
30.466
32.897
37.07
42.009
46.233
48.689
49.15
48.019
45.955
43.54
41.13
38.887
36.84
34.977
33.319
32.002
31.244
31.233
32.0
33.356
34.929
36.311
37.251
37.665
37.603
37.176
36.524
35.78
35.036
34.327
33.65
32.988
32.34
31.724
31.156
30.665
30.282
30.031
30.026
30.77
33.048
37.093
42.032
46.415
49.104
49.762
48.767
46.767
44.345
41.884
39.588
37.513
35.644
33.983
32.616
31.741
31.571
32.196
33.466
35.025
36.47
37.484
37.929
37.857
37.424
36.779
36.04
35.285
34.542
33.814
33.092
32.371
31.68
31.06
30.531
30.114
29.884
30.182
31.787
35.275
40.154
45.031
48.527
49.975
49.523
47.803
45.477
43.008
40.638
38.458
36.479
34.712
33.213
32.138
31.694
32.011
33.008
34.395
35.811
36.951
37.622
37.772
37.48
36.911
36.197
35.43
34.671
33.936
33.215
32.505
31.816
31.182
30.642
30.218
29.948
30.041
31.179
34.146
38.842
44.037
48.183
50.332
50.419
48.991
46.759
44.281
41.881
39.688
37.698
35.897
34.313
33.061
32.333
32.308
33.008
34.242
35.677
36.948
37.778
38.077
37.904
37.406
36.737
35.996
35.244
34.501
33.775
33.056
32.353
31.69
31.106
30.629
30.28
30.159
30.656
32.561
36.338
41.344
46.12
49.35
50.487
49.755
47.821
45.361
42.832
40.464
38.334
36.433
34.749
33.361
32.465
32.268
32.849
34.049
35.543
36.952
37.959
38.419
38.378
37.959
37.297
36.518
35.716
34.945
34.203
33.469
32.734
32.015
31.372
30.833
30.42
30.195
30.445
31.879
35.137
39.905
44.881
48.615
50.32
50.041
48.354
45.957
43.392
40.97
38.814
36.919
35.238
33.795
32.748
32.31
32.601
33.537
34.856
36.194
37.218
37.749
37.778
37.408
36.787
36.047
35.288
34.565
33.886
33.23
32.577
31.926
31.298
30.723
30.235
29.882
29.776
30.349
32.417
36.385
41.525
46.327
49.482
50.482
49.617
47.579
45.052
42.498
40.15
38.079
36.248
34.617
33.257
32.341
32.069
32.533
33.619
35.016
36.342
37.291
37.738
37.699
37.262
36.558
35.742
34.931
34.176
33.481
32.811
32.143
31.481
30.862
30.33
29.907
29.609
29.524
30.06
32.03
35.931
41.138
46.154
49.57
50.786
50.048
48.04
45.487
42.897
40.52
38.43
36.595
34.974
33.594
32.593
32.179
32.479
33.425
34.759
36.121
37.172
37.727
37.772
37.397
36.741
35.951
35.14
34.375
33.662
32.982
32.324
31.685
31.087
30.562
30.14
29.843
29.728
30.082
31.628
35.017
39.916
44.981
48.741
50.389
49.975
48.125
45.589
42.934
40.446
38.217
36.248
34.512
33.057
32.038
31.659
32.041
33.108
34.575
36.044
37.179
37.801
37.882
37.523
36.879
36.099
35.293
34.523
33.806
33.121
32.442
31.759
31.114
30.565
30.134
29.824
29.733
30.276
32.273
36.194
41.368
46.281
49.55
50.6
49.711
47.606
45.009
42.417
40.055
37.963
36.105
34.451
33.056
32.097
31.793
32.248
33.347
34.78
36.161
37.164
37.614
37.521
37.034
36.326
35.535
34.758
34.019
33.314
32.641
31.972
31.311
30.691
30.147
29.717
29.429
29.43
30.284
32.84
37.287
42.645
47.321
50.094
50.642
49.398
47.12
44.482
41.906
39.602
37.609
35.858
34.29
32.968
32.093
31.899
32.462
33.608
34.996
36.261
37.131
37.484
37.348
36.841
36.116
35.306
34.5
33.742
33.021
32.314
31.62
30.956
30.355
29.847
29.455
29.238
29.446
30.771
33.963
38.863
44.2
48.393
50.457
50.337
48.641
46.152
43.489
40.994
38.776
36.816
35.056
33.517
32.34
31.745
31.877
32.722
34.063
35.55
36.808
37.577
37.78
37.51
36.938
36.222
35.444
34.65
33.872
33.117
32.395
31.712
31.082
30.527
30.086
29.802
29.776
30.445
32.619
36.694
41.921
46.75
49.816
50.615
49.496
47.214
44.517
41.899
39.566
37.532
35.728
34.127
32.805
31.96
31.808
32.407
33.59
35.015
36.314
37.225
37.618
37.51
37.023
36.323
35.549
34.773
34.02
33.291
32.577
31.894
31.259
30.683
30.175
29.767
29.528
29.716
31.007
34.139
38.953
44.174
48.238
50.199
50.014
48.268
45.752
43.088
40.595
38.38
36.411
34.634
33.074
31.88
31.271
31.417
32.303
33.687
35.184
36.419
37.148
37.32
37.03
36.422
35.647
34.835
34.064
33.358
32.705
32.07
31.441
30.833
30.274
29.787
29.412
29.208
29.406
30.683
33.825
38.733
44.155
48.471
50.64
50.565
48.852
46.309
43.585
41.043
38.792
36.808
35.024
33.441
32.197
31.521
31.589
32.383
33.685
35.142
36.384
37.16
37.405
37.183
36.619
35.862
35.043
34.244
33.512
32.841
32.194
31.557
30.944
30.385
29.901
29.52
29.267
29.263
30.003
32.35
36.65
42.049
46.948
50.004
50.754
49.574
47.227
44.457
41.741
39.292
37.147
35.25
33.564
32.187
31.325
31.18
31.824
33.109
34.693
36.158
37.177
37.627
37.56
37.106
36.405
35.595
34.792
34.039
33.314
32.586
31.862
31.168
30.552
30.045
29.664
29.436
29.521
30.51
33.232
37.815
43.181
47.719
50.261
50.55
49.06
46.568
43.768
41.08
38.671
36.553
34.675
33.031
31.747
31.044
31.114
31.965
33.378
34.978
36.389
37.327
37.685
37.528
36.998
36.262
35.457
34.662
33.909
33.184
32.467
31.758
31.083
30.475
29.969
29.604
29.486
30.03
32.05
36.019
41.274
46.282
49.63
50.732
49.855
47.705
45.01
42.299
39.82
37.617
35.654
33.902
32.443
31.471
31.211
31.753
32.972
34.533
36.017
37.092
37.598
37.562
37.125
36.457
35.702
34.939
34.176
33.407
32.639
31.887
31.187
30.569
30.049
29.646
29.434
29.718
31.241
34.706
39.799
45.122
49.117
50.91
50.55
48.686
46.097
43.373
40.836
38.589
36.612
34.846
33.309
32.172
31.67
31.952
32.958
34.412
35.92
37.121
37.792
37.893
37.541
36.901
36.115
35.298
34.504
33.731
32.972
32.242
31.569
30.979
30.472
30.043
29.733
29.733
30.637
33.289
37.848
43.254
47.887
50.536
50.911
49.512
47.129
44.448
41.886
39.603
37.602
35.817
34.222
32.93
32.182
32.182
32.944
34.252
35.732
37.001
37.803
38.055
37.824
37.257
36.524
35.746
34.972
34.209
33.45
32.703
31.993
31.359
30.827
30.402
30.099
29.983
30.38
32.014
35.468
40.348
45.305
48.895
50.358
49.8
47.853
45.263
42.588
40.131
37.985
36.088
34.382
32.946
31.994
31.762
32.331
33.538
35.026
36.4
37.379
37.841
37.8
37.367
36.702
35.954
35.207
34.48
33.75
33.001
32.262
31.582
31.012
30.571
30.244
30.072
30.322
31.697
34.889
39.661
44.747
48.629
50.4
50.063
48.244
45.715
43.066
40.627
38.502
36.663
35.041
33.646
32.632
32.22
32.546
33.529
34.881
36.239
37.285
37.835
37.877
37.515
36.898
36.147
35.355
34.571
33.793
33.025
32.295
31.634
31.061
30.572
30.19
30.02
30.433
32.182
35.794
40.748
45.622
49.004
50.21
49.43
47.385
44.829
42.287
40.01
38.025
36.267
34.688
33.347
32.449
32.21
32.691
33.745
35.079
36.326
37.203
37.566
37.438
36.946
36.257
35.5
34.74
33.995
33.26
32.538
31.853
31.221
30.671
30.219
29.884
29.739
30.128
31.814
35.374
40.343
45.32
48.872
50.266
49.642
47.685
45.161
42.639
40.401
38.5
36.844
35.321
33.974
32.996
32.611
32.924
33.838
35.069
36.266
37.153
37.579
37.525
37.093
36.444
35.706
34.954
34.211
33.475
32.754
32.066
31.434
30.887
30.439
30.099
29.946
30.311
31.924
35.363
40.216
45.137
48.696
50.143
49.587
47.692
45.227
42.758
40.556
38.669
37.013
35.501
34.18
33.224
32.854
33.174
34.084
35.302
36.476
37.315
37.673
37.562
37.102
36.443
35.717
34.989
34.273
33.549
32.824
32.127
31.487
30.93
30.476
30.146
30.011
30.316
31.665
34.674
39.139
43.884
47.524
49.223
48.944
47.25
44.865
42.372
40.081
38.089
36.374
34.867
33.578
32.671
32.355
32.731
33.69
34.945
36.141
36.998
37.379
37.307
36.897
36.288
35.586
34.869
34.167
33.486
32.815
32.164
31.562
31.033
30.591
30.262
30.109
30.404
31.781
34.821
39.266
43.946
47.505
49.144
48.859
47.223
44.939
42.552
40.368
38.48
36.839
35.361
34.063
33.107
32.714
32.994
33.859
35.049
36.226
37.097
37.511
37.479
37.104
36.507
35.798
35.052
34.305
33.577
32.876
32.221
31.635
31.133
30.725
30.443
30.458
31.278
33.593
37.521
42.175
46.166
48.454
48.772
47.523
45.412
43.062
40.85
38.931
37.293
35.835
34.519
33.473
32.896
32.931
33.555
34.56
35.641
36.514
37.015
37.091
36.792
36.243
35.585
34.9
34.216
33.534
32.855
32.201
31.603
31.08
30.64
30.28
30.043
30.134
31.131
33.727
37.889
42.58
46.399
48.394
48.434
47.021
44.85
42.498
40.309
38.402
36.739
35.239
33.899
32.856
32.307
32.38
33.05
34.108
35.235
36.127
36.602
36.623
36.264
35.673
34.989
34.309
33.674
33.072
32.475
31.881
31.307
30.772
30.29
29.877
29.578
29.471
29.873
31.484
34.813
39.395
43.914
47.075
48.29
47.719
45.967
43.698
41.385
39.271
37.424
35.805
34.347
33.082
32.18
31.854
32.213
33.15
34.39
35.596
36.486
36.906
36.858
36.462
35.863
35.189
34.515
33.866
33.239
32.63
32.042
31.496
31.003
30.574
30.242
30.086
30.341
31.603
34.47
38.735
43.269
46.745
48.374
48.162
46.658
44.521
42.258
40.164
38.338
36.731
35.247
33.89
32.8
32.186
32.222
32.9
34.025
35.294
36.4
37.131
37.418
37.322
36.945
36.393
35.75
35.091
34.469
33.947
33.593
33.448
33.507
33.725
34.074
34.696
36.039
38.537
41.98
45.482
48.025
49.016
48.491
46.927
44.915
42.921
41.161
39.659
38.325
37.072
35.936
35.096
34.735
34.926
35.578
36.47
37.333
37.954
38.227
38.141
37.748
37.151
36.46
35.766
35.131
34.567
34.05
33.565
33.11
32.685
32.303
31.994
31.82
32.065
33.369
36.215
40.202
44.132
46.778
47.574
46.728
44.862
42.63
40.482
38.629
37.078
35.738
34.549
33.584
33.007
32.954
33.44
34.328
35.366
36.286
36.901
37.13
36.987
36.551
35.946
35.271
34.593
33.967
33.427
32.968
32.569
32.205
31.857
31.523
31.213
30.959
30.829
31.094
32.374
35.165
39.1
43.012
45.705
46.591
45.828
44.011
41.767
39.531
37.521
35.797
34.311
33.03
32.032
31.469
31.49
32.115
33.19
34.443
35.549
36.279
36.571
36.487
36.111
35.53
34.857
34.187
33.584
33.069
32.627
32.243
31.91
31.611
31.322
31.044
30.803
30.622
30.556
30.81
31.949
34.481
38.108
41.751
44.291
45.185
44.552
42.891
40.753
38.56
36.515
34.668
33.021
31.639
30.656
30.241
30.512
31.436
32.786
34.247
35.494
36.311
36.657
36.614
36.298
35.797
35.179
34.532
33.918
33.363
32.882
32.486
32.158
31.865
31.595
31.358
31.17
31.036
30.959
31.076
31.817
33.722
36.802
40.274
43.067
44.472
44.412
43.238
41.427
39.357
37.233
35.16
33.233
31.597
30.412
29.836
29.975
30.817
32.165
33.678
35.021
35.981
36.497
36.619
36.456
36.12
35.685
35.201
34.707
34.234
33.8
33.42
33.086
32.768
32.466
32.19
31.962
31.795
31.692
31.732
32.229
33.706
36.352
39.593
42.438
44.098
44.346
43.437
41.822
39.88
37.818
35.743
33.751
31.994
30.676
29.997
30.075
30.89
32.251
33.828
35.262
36.304
36.878
37.047
36.929
36.632
36.229
35.758
35.267
34.8
34.365
33.969
33.615
33.291
32.997
32.736
32.515
32.343
32.248
32.38
33.156
35.025
37.87
40.909
43.227
44.281
44.04
42.825
41.044
39.007
36.895
34.825
32.927
31.381
30.381
30.077
30.519
31.627
33.156
34.765
36.127
37.054
37.527
37.638
37.491
37.175
36.766
36.318
35.863
35.416
34.997
34.589
34.182
33.803
33.469
33.175
32.918
32.761
32.952
33.993
36.207
39.215
42.096
43.991
44.537
43.877
42.417
40.547
38.506
36.418
34.391
32.595
31.228
30.465
30.438
31.175
32.529
34.181
35.752
36.945
37.649
37.912
37.86
37.62
37.286
36.89
36.444
35.977
35.514
35.055
34.602
34.171
33.784
33.454
33.187
33.059
33.36
34.561
36.856
39.762
42.382
43.966
44.271
43.499
42.027
40.192
38.19
36.135
34.172
32.496
31.332
30.851
31.129
32.106
33.542
35.075
36.385
37.309
37.827
37.993
37.909
37.675
37.359
36.989
36.576
36.144
35.708
35.271
34.843
34.43
34.026
33.644
33.391
33.546
34.561
36.68
39.54
42.301
44.154
44.732
44.152
42.779
40.969
38.962
36.907
34.919
33.164
31.859
31.185
31.241
31.99
33.249
34.727
36.117
37.185
37.843
38.13
38.145
37.973
37.67
37.278
36.823
36.318
35.792
35.28
34.808
34.387
34.047
33.873
34.092
35.107
37.136
39.825
42.376
44.019
44.431
43.735
42.286
40.446
38.446
36.399
34.42
32.696
31.439
30.842
31.023
31.959
33.462
35.191
36.774
37.971
38.708
39.038
39.043
38.801
38.379
37.831
37.195
36.509
35.828
35.19
34.608
34.105
33.751
33.711
34.333
35.964
38.479
41.187
43.259
44.172
43.878
42.676
40.959
39.028
37.044
35.114
33.376
32.037
31.314
31.368
32.201
33.601
35.212
36.655
37.689
38.258
38.434
38.334
38.053
37.649
37.153
36.592
36.001
35.423
34.9
34.432
34.021
33.732
33.751
34.454
36.175
38.752
41.468
43.496
44.356
44.017
42.778
41.023
39.063
37.092
35.212
33.538
32.249
31.562
31.637
32.471
33.849
35.415
36.81
37.808
38.356
38.511
38.376
38.05
37.599
37.062
36.471
35.859
35.257
34.697
34.213
33.837
33.651
33.903
34.985
37.075
39.769
42.259
43.833
44.203
43.501
42.063
40.237
38.281
36.36
34.599
33.142
32.195
31.937
32.418
33.506
34.919
36.312
37.41
38.087
38.355
38.299
38.028
37.636
37.167
36.628
36.038
35.441
34.901
34.442
34.073
33.826
33.841
34.478
36.11
38.628
41.342
43.414
44.34
44.086
42.927
41.242
39.352
37.451
35.652
34.099
32.98
32.472
32.667
33.514
34.766
36.093
37.228
38.016
38.418
38.491
38.318
37.966
37.49
36.946
36.375
35.81
35.293
34.844
34.459
34.138
33.964
34.214
35.318
37.459
40.188
42.675
44.211
44.508
43.703
42.16
40.269
38.329
36.521
34.946
33.7
32.949
32.857
33.449
34.558
35.887
37.115
38.006
38.489
38.61
38.46
38.111
37.63
37.079
36.502
35.918
35.354
34.853
34.446
34.124
33.892
33.861
34.368
35.864
38.368
41.258
43.64
44.875
44.799
43.65
41.874
39.888
37.985
36.303
34.904
33.877
33.365
33.476
34.175
35.251
36.414
37.419
38.119
38.455
38.455
38.21
37.82
37.339
36.79
36.214
35.67
35.175
34.726
34.337
34.022
33.798
33.766
34.271
35.781
38.335
41.309
43.769
45.028
44.923
43.723
41.886
39.859
37.945
36.282
34.906
33.88
33.34
33.395
34.029
35.061
36.22
37.25
37.97
38.31
38.299
38.024
37.58
37.049
36.492
35.944
35.414
34.918
34.479
34.107
33.807
33.577
33.441
33.605
34.556
36.69
39.708
42.685
44.686
45.259
44.501
42.838
40.767
38.678
36.796
35.227
34.013
33.222
32.98
33.349
34.236
35.412
36.591
37.537
38.115
38.3
38.134
37.696
37.09
36.43
35.795
35.229
34.748
34.355
34.03
33.742
33.484
33.27
33.094
33.003
33.275
34.487
36.98
40.304
43.429
45.382
45.744
44.706
42.805
40.593
38.456
36.603
35.102
33.978
33.287
33.139
33.581
34.52
35.713
36.86
37.738
38.245
38.357
38.107
37.603
36.953
36.241
35.545
34.952
34.498
34.163
33.903
33.681
33.477
33.304
33.165
33.052
32.989
33.197
34.27
36.711
40.206
43.67
45.978
46.593
45.654
43.702
41.348
39.062
37.1
35.523
34.307
33.475
33.118
33.325
34.078
35.209
36.439
37.49
38.199
38.507
38.424
38.01
37.375
36.642
35.903
35.233
34.683
34.26
33.947
33.705
33.487
33.274
33.06
32.858
32.71
32.774
33.541
35.644
39.061
42.854
45.784
47.023
46.483
44.657
42.231
39.769
37.596
35.82
34.424
33.403
32.837
32.829
33.406
34.462
35.747
36.964
37.877
38.361
38.414
38.094
37.495
36.758
36.008
35.33
34.754
34.291
33.923
33.62
33.352
33.107
32.889
32.691
32.544
32.656
33.633
36.08
39.784
43.635
46.349
47.218
46.327
44.272
41.738
39.225
37.006
35.186
33.778
32.793
32.326
32.467
33.197
34.359
35.688
36.895
37.768
38.218
38.244
37.901
37.284
36.523
35.741
35.033
34.446
33.973
33.575
33.217
32.898
32.628
32.409
32.233
32.158
32.549
34.142
37.31
41.397
45.057
47.137
47.241
45.708
43.247
40.527
37.982
35.8
34.027
32.671
31.81
31.566
32.021
33.097
34.539
36.022
37.237
37.996
38.259
38.082
37.571
36.847
36.042
35.255
34.548
33.954
33.486
33.127
32.838
32.588
32.355
32.152
31.996
31.946
32.378
34.078
37.434
41.74
45.583
47.754
47.826
46.165
43.524
40.61
37.872
35.513
33.584
32.099
31.136
30.85
31.347
32.554
34.183
35.838
37.188
38.051
38.388
38.239
37.718
36.976
36.15
35.343
34.611
33.984
33.476
33.076
32.743
32.45
32.201
32.0
31.84
31.837
32.536
34.741
38.553
42.927
46.384
47.922
47.407
45.364
42.541
39.568
36.832
34.496
32.593
31.162
30.327
30.255
31.019
32.477
34.275
35.992
37.301
38.056
38.258
37.997
37.42
36.67
35.862
35.066
34.335
33.704
33.185
32.766
32.423
32.137
31.902
31.716
31.699
32.418
34.703
38.637
43.139
46.67
48.205
47.633
45.524
42.655
39.644
36.847
34.422
32.425
30.927
30.079
30.045
30.896
32.47
34.404
36.265
37.711
38.569
38.839
38.621
38.048
37.262
36.404
35.567
34.797
34.108
33.521
33.034
32.634
32.307
32.034
31.867
32.172
33.764
37.12
41.571
45.624
47.95
48.067
46.37
43.654
40.623
37.71
35.117
32.928
31.216
30.12
29.835
30.476
31.934
33.858
35.793
37.348
38.301
38.633
38.464
37.961
37.275
36.5
35.697
34.928
34.251
33.686
33.231
32.872
32.591
32.365
32.237
32.611
34.315
37.75
42.16
46.04
48.121
48.015
46.167
43.361
40.276
37.331
34.718
32.507
30.772
29.684
29.477
30.276
31.928
34.026
36.071
37.655
38.576
38.843
38.587
37.977
37.163
36.277
35.412
34.624
33.938
33.361
32.885
32.498
32.191
31.962
31.97
32.831
35.308
39.333
43.719
46.949
48.116
47.22
44.885
41.884
38.803
35.956
33.475
31.441
29.978
29.291
29.575
30.843
32.828
35.038
36.98
38.325
38.963
38.969
38.518
37.795
36.956
36.097
35.276
34.535
33.889
33.332
32.858
32.477
32.181
32.023
32.366
33.99
37.313
41.614
45.427
47.499
47.433
45.636
42.866
39.791
36.824
34.167
31.919
30.183
29.147
29.037
29.961
31.761
34.021
36.206
37.874
38.819
39.064
38.779
38.162
37.375
36.519
35.666
34.868
34.146
33.518
32.993
32.577
32.269
32.101
32.395
33.884
37.016
41.183
44.996
47.211
47.352
45.738
43.077
40.053
37.114
34.479
32.245
30.528
29.517
29.425
30.358
32.131
34.319
36.402
37.976
38.854
39.06
38.759
38.145
37.372
36.546
35.739
34.986
34.297
33.693
33.194
32.788
32.486
32.47
33.36
35.855
39.792
43.958
46.91
47.835
46.802
44.443
41.492
38.493
35.733
33.336
31.395
30.087
29.653
30.263
31.836
33.994
36.198
37.968
39.06
39.462
39.287
38.72
37.945
37.084
36.211
35.383
34.645
34.005
33.461
33.029
32.714
32.674
33.489
35.871
39.754
44.003
47.147
48.272
47.36
45.027
42.047
39.007
36.224
33.829
31.904
30.606
30.175
30.791
32.37
34.509
36.661
38.362
39.38
39.707
39.485
38.895
38.093
37.2
36.299
35.457
34.721
34.109
33.623
33.243
32.976
33.081
34.235
37.019
41.062
45.071
47.688
48.236
46.885
44.327
41.306
38.353
35.725
33.532
31.875
30.935
30.916
31.887
33.628
35.678
37.54
38.864
39.535
39.61
39.238
38.574
37.745
36.849
35.968
35.165
34.484
33.943
33.518
33.187
33.05
33.59
35.55
39.056
43.177
46.476
47.911
47.309
45.194
42.325
39.342
36.627
34.335
32.533
31.371
31.052
31.684
33.144
35.058
36.947
38.416
39.262
39.482
39.197
38.567
37.746
36.853
35.97
35.15
34.435
33.854
33.399
33.059
32.92
33.376
35.131
38.444
42.528
45.998
47.735
47.416
45.472
42.68
39.731
37.036
34.769
33.0
31.845
31.481
32.015
33.348
35.139
36.929
38.336
39.161
39.386
39.114
38.51
37.715
36.836
35.956
35.134
34.42
33.855
33.437
33.144
33.041
33.51
35.242
38.494
42.496
45.845
47.436
47.009
45.033
42.274
39.399
36.798
34.628
32.946
31.856
31.545
32.124
33.47
35.22
36.927
38.227
38.94
39.07
38.74
38.1
37.272
36.371
35.495
34.698
34.029
33.51
33.123
32.848
32.779
33.352
35.254
38.643
42.649
45.871
47.262
46.624
44.502
41.7
38.877
36.406
34.401
32.89
31.98
31.823
32.476
33.791
35.427
36.982
38.137
38.734
38.788
38.401
37.712
36.879
36.013
35.194
34.466
33.854
33.366
32.999
32.753
32.688
33.168
34.881
38.097
42.058
45.366
46.9
46.4
44.371
41.61
38.802
36.335
34.326
32.819
31.9
31.702
32.276
33.484
35.034
36.547
37.702
38.314
38.358
37.956
37.279
36.47
35.64
34.862
34.165
33.555
33.047
32.656
32.377
32.237
32.452
33.61
36.245
40.016
43.703
46.002
46.29
44.787
42.222
39.36
36.72
34.544
32.873
31.75
31.286
31.577
32.573
34.034
35.586
36.878
37.68
37.916
37.652
37.055
36.296
35.507
34.77
34.11
33.519
32.998
32.576
32.259
32.038
31.94
32.246
33.633
36.548
40.435
43.963
45.908
45.824
44.077
41.433
38.617
36.085
34.012
32.437
31.42
31.063
31.46
32.528
34.003
35.515
36.724
37.423
37.572
37.264
36.65
35.873
35.059
34.295
33.635
33.085
32.636
32.277
31.999
31.789
31.656
31.769
32.685
35.036
38.671
42.459
45.056
45.709
44.526
42.167
39.381
36.731
34.505
32.777
31.57
30.97
31.082
31.905
33.246
34.773
36.139
37.088
37.51
37.435
36.977
36.28
35.484
34.701
33.995
33.383
32.865
32.435
32.101
31.862
31.707
31.683
32.14
33.761
36.844
40.677
43.906
45.443
45.047
43.187
40.592
37.896
35.486
33.515
32.03
31.098
30.837
31.318
32.455
33.974
35.48
36.64
37.286
37.412
37.106
36.509
35.764
34.996
34.272
33.621
33.072
32.624
32.277
32.025
31.848
31.748
31.895
32.865
35.249
38.795
42.374
44.735
45.228
43.991
41.657
38.93
36.329
34.121
32.396
31.211
30.665
30.857
31.773
33.209
34.819
36.225
37.174
37.559
37.43
36.931
36.225
35.438
34.673
33.984
33.388
32.889
32.492
32.19
31.977
31.825
31.753
32.085
33.517
36.442
40.253
43.634
45.445
45.315
43.63
41.089
38.341
35.818
33.717
32.086
30.988
30.57
30.948
32.071
33.677
35.356
36.723
37.548
37.798
37.564
37.006
36.273
35.495
34.751
34.066
33.476
32.997
32.629
32.355
32.136
31.969
32.003
32.786
34.99
38.536
42.344
45.08
45.962
45.012
42.808
40.072
37.366
34.996
33.076
31.658
30.845
30.791
31.554
32.981
34.71
36.315
37.481
38.075
38.126
37.743
37.069
36.269
35.466
34.714
34.038
33.456
32.982
32.63
32.394
32.231
32.217
32.829
34.774
38.119
41.915
44.819
45.955
45.233
43.188
40.527
37.817
35.381
33.348
31.79
30.826
30.647
31.36
32.824
34.66
36.398
37.666
38.308
38.365
37.981
37.318
36.513
35.68
34.911
34.235
33.645
33.147
32.75
32.442
32.219
32.191
32.845
34.881
38.338
42.226
45.183
46.339
45.628
43.571
40.863
38.08
35.58
33.518
31.961
31.025
30.868
31.574
33.012
34.83
36.567
37.854
38.532
38.631
38.278
37.631
36.828
35.984
35.186
34.476
33.87
33.377
33.0
32.732
32.555
32.577
33.349
35.549
39.092
42.906
45.654
46.548
45.603
43.395
40.635
37.888
35.468
33.49
32.019
31.194
31.188
32.05
33.591
35.393
37.017
38.162
38.714
38.712
38.297
37.631
36.847
36.045
35.283
34.588
33.992
33.505
33.12
32.809
32.567
32.581
33.459
35.84
39.517
43.335
45.959
46.651
45.508
43.172
40.37
37.642
35.269
33.355
31.983
31.296
31.433
32.417
34.02
35.816
37.366
38.384
38.794
38.68
38.177
37.444
36.632
35.83
35.086
34.435
33.888
33.438
33.08
32.808
32.63
32.744
33.749
36.237
39.944
43.701
46.196
46.745
45.49
43.072
40.227
37.496
35.162
33.305
31.985
31.35
31.55
32.584
34.211
35.999
37.512
38.494
38.89
38.774
38.284
37.553
36.712
35.878
35.118
34.451
33.892
33.454
33.125
32.882
32.76
33.084
34.535
37.505
41.381
44.838
46.706
46.563
44.769
42.077
39.2
36.578
34.394
32.712
31.628
31.314
31.885
33.236
35.034
36.822
38.203
38.971
39.123
38.783
38.119
37.293
36.417
35.576
34.827
34.207
33.72
33.35
33.069
32.872
32.886
33.595
35.685
39.206
43.198
46.26
47.431
46.598
44.333
41.428
38.536
36.019
33.997
32.508
31.675
31.672
32.551
34.107
35.941
37.61
38.773
39.293
39.223
38.721
37.959
37.094
36.231
35.424
34.704
34.105
33.641
33.302
33.065
32.944
33.17
34.381
37.089
40.9
44.565
46.789
46.976
45.373
42.712
39.756
37.024
34.757
33.024
31.887
31.484
31.925
33.152
34.884
36.674
38.106
38.925
39.103
38.765
38.088
37.241
36.347
35.489
34.721
34.066
33.548
33.174
32.919
32.765
32.842
33.667
35.917
39.536
43.435
46.208
47.009
45.872
43.436
40.5
37.67
35.243
33.309
31.951
31.317
31.545
32.614
34.256
36.04
37.55
38.498
38.798
38.543
37.914
37.105
36.258
35.447
34.703
34.068
33.57
33.213
32.975
32.836
32.879
33.505
35.36
38.617
42.456
45.533
46.842
46.175
44.027
41.188
38.337
35.851
33.866
32.453
31.724
31.793
32.672
34.178
35.93
37.494
38.543
38.966
38.828
38.282
37.496
36.619
35.757
34.975
34.298
33.744
33.321
33.021
32.828
32.796
33.236
34.779
37.748
41.501
44.713
46.283
45.915
44.032
41.368
38.592
36.125
34.153
32.739
31.97
31.955
32.703
34.045
35.64
37.087
38.089
38.522
38.418
37.906
37.163
36.337
35.535
34.822
34.211
33.706
33.324
33.06
32.873
32.783
33.037
34.233
36.83
40.402
43.738
45.662
45.673
44.057
41.524
38.794
36.348
34.397
32.973
32.111
31.909
32.409
33.51
34.944
36.355
37.41
37.918
37.875
37.423
36.737
35.961
35.192
34.492
33.873
33.339
32.917
32.608
32.39
32.244
32.218
32.651
34.194
37.134
40.79
43.886
45.387
45.005
43.153
40.575
37.946
35.674
33.898
32.637
31.931
31.872
32.501
33.706
35.193
36.596
37.627
38.136
38.12
37.68
36.982
36.184
35.392
34.678
34.08
33.598
33.215
32.923
32.719
32.595
32.61
33.085
34.626
37.506
41.082
44.111
45.559
45.153
43.326
40.807
38.251
36.05
34.339
33.132
32.472
32.438
33.037
34.132
35.444
36.661
37.529
37.914
37.823
37.361
36.671
35.904
35.163
34.509
33.959
33.508
33.15
32.874
32.666
32.503
32.429
32.709
33.943
36.546
40.042
43.234
45.003
44.918
43.299
40.842
38.237
35.931
34.108
32.797
32.02
31.852
32.347
33.407
34.772
36.121
37.155
37.678
37.663
37.222
36.531
35.759
34.999
34.305
33.721
33.262
32.925
32.681
32.496
32.361
32.295
32.393
33.097
35.039
38.253
41.836
44.504
45.392
44.451
42.279
39.657
37.193
35.194
33.716
32.727
32.247
32.344
33.032
34.194
35.561
36.795
37.621
37.922
37.737
37.202
36.471
35.684
34.955
34.336
33.823
33.406
33.093
32.878
32.722
32.602
32.577
32.98
34.425
37.184
40.63
43.548
44.926
44.489
42.666
40.177
37.668
35.532
33.888
32.717
32.047
31.952
32.476
33.526
34.856
36.141
37.101
37.59
37.605
37.231
36.607
35.878
35.174
34.57
34.09
33.726
33.44
33.189
32.964
32.78
32.665
32.807
33.733
35.962
39.253
42.547
44.672
45.017
43.734
41.484
38.993
36.765
35.013
33.741
32.934
32.642
32.923
33.76
34.974
36.254
37.292
37.885
37.985
37.67
37.072
36.347
35.637
35.018
34.507
34.071
33.699
33.395
33.15
32.97
32.858
32.879
33.392
35.008
37.861
41.199
43.83
44.879
44.212
42.316
39.892
37.529
35.551
34.054
33.027
32.49
32.502
33.07
34.079
35.264
36.319
37.018
37.268
37.095
36.608
35.945
35.23
34.553
33.965
33.484
33.1
32.813
32.613
32.472
32.359
32.272
32.367
33.148
35.148
38.198
41.334
43.433
43.868
42.744
40.634
38.202
35.94
34.109
32.785
31.975
31.714
32.05
32.943
34.193
35.507
36.611
37.298
37.49
37.248
36.712
36.025
35.301
34.627
34.054
33.595
33.24
32.978
32.791
32.65
32.564
32.631
33.209
34.832
37.578
40.722
43.173
44.147
43.524
41.738
39.432
37.151
35.208
33.719
32.714
32.25
32.386
33.099
34.239
35.533
36.675
37.428
37.7
37.528
37.038
36.378
35.664
34.986
34.395
33.903
33.494
33.161
32.904
32.707
32.542
32.422
32.565
33.54
35.767
38.867
41.777
43.469
43.518
42.162
40.001
37.649
35.541
33.863
32.644
31.919
31.776
32.266
33.299
34.617
35.888
36.826
37.287
37.292
36.938
36.334
35.606
34.863
34.179
33.584
33.09
32.696
32.406
32.222
32.148
32.188
32.482
33.447
35.501
38.463
41.449
43.447
43.908
42.924
40.993
38.714
36.552
34.755
33.41
32.558
32.263
32.592
33.498
34.783
36.135
37.254
37.956
38.179
37.972
37.454
36.771
36.069
35.453
34.949
34.536
34.202
33.947
33.755
33.622
33.576
33.775
34.622
36.525
39.316
42.143
44.024
44.424
43.437
41.567
39.394
37.366
35.706
34.472
33.706
33.487
33.882
34.822
36.066
37.29
38.215
38.691
38.701
38.34
37.756
37.083
36.427
35.852
35.367
34.956
34.624
34.375
34.195
34.065
34.048
34.39
35.594
37.947
40.964
43.612
44.978
44.759
43.284
41.166
38.967
37.052
35.559
34.511
33.951
33.948
34.515
35.529
36.75
37.886
38.682
39.009
38.878
38.409
37.759
37.059
36.395
35.795
35.271
34.838
34.498
34.228
34.013
33.879
33.949
34.607
36.336
39.075
42.002
44.049
44.581
43.65
41.791
39.639
37.67
36.114
35.006
34.325
34.078
34.299
34.97
35.958
37.006
37.841
38.302
38.347
38.036
37.485
36.817
36.144
35.548
35.047
34.62
34.278
34.037
33.866
33.734
33.683
33.948
35.01
37.146
39.92
42.339
43.532
43.245
41.803
39.815
37.848
36.23
35.041
34.243
33.804
33.747
34.104
34.83
35.749
36.621
37.243
37.495
37.367
36.949
36.367
35.751
35.197
34.724
34.328
34.013
33.757
33.533
33.35
33.251
33.314
33.761
34.993
37.126
39.621
41.595
42.391
41.897
40.477
38.681
36.973
35.599
34.599
33.949
33.661
33.781
34.316
35.159
36.095
36.886
37.339
37.393
37.115
36.643
36.096
35.561
35.102
34.721
34.387
34.101
33.855
33.64
33.456
33.328
33.333
33.697
34.836
36.895
39.357
41.333
42.141
41.672
40.285
38.522
36.835
35.464
34.467
33.825
33.531
33.607
34.057
34.798
35.644
36.386
36.858
36.973
36.737
36.262
35.7
35.162
34.707
34.359
34.095
33.881
33.7
33.547
33.427
33.339
33.314
33.494
34.228
35.807
37.998
40.059
41.239
41.214
40.172
38.576
36.908
35.485
34.414
33.686
33.314
33.341
33.773
34.513
35.385
36.164
36.668
36.824
36.653
36.254
35.753
35.231
34.748
34.354
34.041
33.776
33.558
33.4
33.295
33.228
33.214
33.364
33.987
35.398
37.473
39.552
40.864
41.001
40.081
38.55
36.879
35.404
34.28
33.489
33.018
32.909
33.198
33.84
34.692
35.544
36.184
36.476
36.435
36.148
35.709
35.215
34.748
34.352
34.033
33.779
33.573
33.406
33.273
33.173
33.111
33.155
33.558
34.692
36.6
38.753
40.359
40.88
40.284
38.929
37.293
35.75
34.495
33.596
33.071
32.932
33.19
33.818
34.681
35.56
36.246
36.604
36.603
36.319
35.865
35.334
34.805
34.327
33.92
33.591
33.341
33.176
33.082
33.051
33.073
33.18
33.534
34.4
35.837
37.465
38.678
39.046
38.505
37.299
35.759
34.178
32.765
31.64
30.876
30.512
30.545
30.908
31.474
32.11
32.704
33.181
33.498
33.645
33.642
33.53
33.333
33.037
32.635
32.153
31.642
31.158
30.728
30.363
30.09
29.972
30.165
30.999
32.714
35.025
37.198
38.55
38.797
38.052
36.653
34.978
33.295
31.77
30.513
29.638
29.266
29.474
30.222
31.302
32.427
33.361
33.981
34.273
34.313
34.193
33.94
33.557
33.086
32.579
32.074
31.611
31.225
30.941
30.801
30.978
31.875
33.804
36.455
39.02
40.703
41.154
40.509
39.131
37.398
35.576
33.836
32.326
31.212
30.681
30.855
31.718
33.052
34.498
35.716
36.535
36.947
37.025
36.852
36.494
35.999
35.428
34.845
34.288
33.785
33.371
33.179
33.674
35.452
38.492
41.97
44.799
46.245
46.187
44.98
43.146
41.165
39.36
37.881
36.774
36.079
35.904
36.332
37.272
38.463
39.559
40.311
40.631
40.556
40.165
39.548
38.799
38.001
37.239
36.559
35.974
35.488
35.174
35.438
36.944
39.847
43.409
46.457
48.09
48.095
46.882
45.104
43.319
41.831
40.703
39.821
39.1
38.592
38.426
38.661
39.206
39.857
40.382
40.62
40.504
40.076
39.422
38.637
37.796
36.98
36.266
35.681
35.205
34.821
34.64
35.157
37.038
