37.4
37.6
37.691
37.64
37.453
37.174
36.846
36.495
36.132
35.769
35.433
35.133
34.859
34.615
34.393
34.205
34.042
33.895
33.779
33.69
33.629
33.648
33.874
34.468
35.503
36.879
38.377
39.743
40.753
41.288
41.366
41.096
40.618
40.027
39.39
38.754
38.144
37.569
37.064
36.704
36.535
36.537
36.677
36.905
37.134
37.292
37.345
37.286
37.107
36.839
36.515
36.158
35.797
35.456
35.132
34.82
34.526
34.267
34.061
33.903
33.769
33.635
33.497
33.374
33.276
33.203
33.202
33.382
33.893
34.807
36.042
37.405
38.654
39.591
40.107
40.21
39.985
39.559
39.04
38.49
37.933
37.399
36.903
36.473
36.159
36.01
36.03
36.171
36.384
36.598
36.743
36.784
36.719
36.559
36.323
36.039
35.72
35.386
35.053
34.736
34.441
34.172
33.93
33.727
33.572
33.455
33.367
33.295
33.235
33.187
33.128
33.049
32.976
32.946
33.038
33.387
34.106
35.185
36.459
37.675
38.622
39.198
39.42
39.345
39.049
38.615
38.141
37.673
37.226
36.795
36.397
36.083
35.896
35.85
35.943
36.134
36.353
36.538
36.643
36.645
36.533
36.333
36.079
35.792
35.492
35.195
34.906
34.63
34.382
34.166
33.974
33.801
33.659
33.556
33.491
33.442
33.392
33.345
33.302
33.248
33.183
33.11
33.056
33.103
33.398
34.069
35.108
36.352
37.578
38.588
39.246
39.527
39.488
39.22
38.829
38.387
37.932
37.478
37.035
36.62
36.296
36.102
36.047
36.126
36.315
36.56
36.789
36.947
36.999
36.931
36.754
36.507
36.221
35.912
35.602
35.314
35.052
34.81
34.588
34.388
34.218
34.074
33.966
33.892
33.834
33.782
33.737
33.703
33.672
33.63
33.567
33.519
33.567
33.834
34.441
35.406
36.601
37.807
38.812
39.493
39.809
39.786
39.519
39.121
38.662
38.179
37.695
37.222
36.79
36.443
36.236
36.204
36.332
36.573
36.864
37.127
37.297
37.348
37.284
37.132
36.907
36.62
36.294
35.962
35.649
35.366
35.102
34.866
34.668
34.507
34.38
34.278
34.197
34.13
34.073
34.013
33.939
33.882
33.918
34.159
34.718
35.636
36.834
38.115
39.248
40.063
40.49
40.564
40.371
40.013
39.561
39.036
38.473
37.922
37.424
37.016
36.742
36.629
36.683
36.874
37.139
37.408
37.621
37.727
37.699
37.556
37.325
37.027
36.69
36.349
36.029
35.734
35.459
35.204
34.983
34.801
34.643
34.493
34.36
34.257
34.179
34.153
34.294
34.758
35.645
36.915
38.382
39.801
40.962
41.729
42.065
42.016
41.686
41.189
40.626
40.064
39.527
39.023
38.564
38.165
37.862
37.705
37.717
37.879
38.126
38.37
38.53
38.552
38.43
38.19
37.868
37.492
37.099
36.722
36.369
36.053
35.772
35.504
35.249
35.017
34.811
34.628
34.466
34.332
34.26
34.346
34.74
35.585
36.87
38.409
39.933
41.204
42.047
42.402
42.353
42.033
41.555
41.02
40.486
39.975
39.487
39.013
38.566
38.197
37.947
37.823
37.801
37.853
37.95
38.029
38.031
37.917
37.688
37.358
36.964
36.555
36.157
35.781
35.432
35.109
34.823
34.576
34.354
34.161
33.998
33.85
33.712
33.58
33.472
33.42
33.504
33.893
34.712
35.924
37.335
38.688
39.751
40.408
40.662
40.578
40.268
39.847
39.402
38.978
38.593
38.226
37.844
37.444
37.087
36.849
36.765
36.817
36.932
37.036
37.063
36.987
36.835
36.635
36.395
36.116
35.805
35.48
35.152
34.826
34.515
34.248
34.028
33.84
33.676
33.531
33.41
33.321
33.263
33.218
33.174
33.124
33.06
32.985
32.919
32.893
33.0
33.397
34.2
35.379
36.747
38.015
38.962
39.513
39.697
39.607
39.346
38.994
38.611
38.242
37.902
37.582
37.259
36.953
36.72
36.594
36.583
36.664
36.789
36.904
36.965
36.942
36.824
36.626
36.363
36.067
35.767
35.483
35.21
34.948
34.708
34.493
34.294
34.106
33.948
33.845
33.778
33.712
33.644
33.597
33.569
33.551
33.529
33.497
33.441
33.36
33.264
33.173
33.099
33.073
33.19
33.602
34.413
35.581
36.914
38.173
39.159
39.756
39.975
39.896
39.62
39.244
38.848
38.474
38.124
37.787
37.462
37.19
37.008
36.921
36.946
37.068
37.232
37.371
37.441
37.416
37.296
37.101
36.847
36.553
36.248
35.95
35.658
35.387
35.15
34.938
34.744
34.583
34.465
34.38
34.314
34.247
34.173
34.106
34.059
34.026
33.996
33.957
33.909
33.853
33.786
33.695
33.585
33.48
33.429
33.546
33.988
34.845
36.053
37.413
38.685
39.663
40.256
40.477
40.399
40.121
39.74
39.332
38.927
38.525
38.132
37.769
37.472
37.286
37.242
37.32
37.469
37.641
37.797
37.894
37.894
37.784
37.574
37.303
37.006
36.688
36.357
36.037
35.741
35.483
35.269
35.09
34.933
34.79
34.666
34.561
34.469
34.388
34.335
34.311
34.294
34.271
34.228
34.165
34.094
34.023
33.947
33.857
33.773
33.789
34.074
34.76
35.844
37.178
38.533
39.69
40.518
40.966
41.061
40.875
40.507
40.05
39.567
39.094
38.644
38.221
37.846
37.569
37.43
37.453
37.619
37.857
38.077
38.214
38.248
38.185
38.023
37.778
37.477
37.148
36.806
36.467
36.141
35.841
35.576
35.347
35.153
34.984
34.835
34.709
34.608
34.519
34.448
34.402
34.368
34.336
34.303
34.267
34.225
34.163
34.073
33.96
33.855
33.817
33.961
34.449
35.37
36.661
38.096
39.416
40.442
41.092
41.363
41.297
40.982
40.509
39.966
39.422
38.898
38.399
37.943
37.591
37.381
37.328
37.418
37.609
37.851
38.069
38.191
38.201
38.105
37.907
37.628
37.293
36.933
36.573
36.213
35.874
35.573
35.299
35.049
34.837
34.662
34.519
34.395
34.285
34.201
34.153
34.134
34.126
34.103
34.069
34.026
33.973
33.912
33.827
33.725
33.661
33.777
34.247
35.158
36.434
37.867
39.205
40.252
40.909
41.162
41.073
40.723
40.206
39.603
38.987
38.387
37.814
37.3
36.903
36.668
36.625
36.778
37.072
37.41
37.695
37.871
37.934
37.881
37.712
37.441
37.103
36.738
36.366
36.002
35.662
35.357
35.084
34.829
34.595
34.405
34.271
34.191
34.156
34.136
34.106
34.057
34.0
33.952
33.907
33.872
33.9
34.123
34.689
35.65
36.892
38.205
39.404
40.321
40.84
40.938
40.691
40.223
39.641
39.014
38.374
37.731
37.123
36.607
36.246
36.083
36.132
36.369
36.722
37.094
37.399
37.583
37.613
37.493
37.268
36.98
36.652
36.307
35.972
35.657
35.355
35.073
34.819
34.605
34.436
34.301
34.179
34.075
33.988
33.931
33.926
34.032
34.402
35.189
36.4
37.877
39.372
40.647
41.54
41.982
41.991
41.656
41.105
40.456
39.778
39.106
38.449
37.824
37.276
36.896
36.738
36.793
37.009
37.315
37.639
37.907
38.074
38.106
37.993
37.747
37.407
37.023
36.623
36.229
35.853
35.519
35.226
34.96
34.73
34.55
34.397
34.258
34.13
34.052
34.127
34.522
35.377
36.723
38.421
40.189
41.72
42.796
43.35
43.443
43.183
42.686
42.061
41.404
40.759
40.142
39.551
39.014
38.571
38.256
38.11
38.134
38.274
38.459
38.619
38.706
38.701
38.589
38.344
37.983
37.564
37.131
36.7
36.288
35.913
35.576
35.274
35.017
34.797
34.59
34.387
34.206
34.071
34.033
34.224
34.822
35.939
37.514
39.314
41.042
42.419
43.274
43.584
43.451
43.031
42.477
41.884
41.295
40.724
40.151
39.575
39.059
38.66
38.4
38.29
38.307
38.414
38.56
38.683
38.714
38.597
38.355
38.03
37.641
37.217
36.776
36.346
35.94
35.567
35.238
34.947
34.694
34.482
34.315
34.181
34.073
33.982
33.893
33.807
33.794
34.017
34.673
35.847
37.44
39.195
40.789
41.984
42.675
42.866
42.655
42.198
41.633
41.036
40.453
39.893
39.341
38.813
38.359
38.013
37.807
37.753
37.833
37.985
38.134
38.215
38.192
38.048
37.785
37.433
37.03
36.606
36.19
35.794
35.415
35.055
34.733
34.464
34.243
34.057
33.889
33.754
33.677
33.641
33.613
33.585
33.542
33.464
33.363
33.279
33.32
33.667
34.474
35.758
37.373
39.053
40.507
41.516
42.015
42.065
41.768
41.262
40.672
40.08
39.515
38.979
38.461
37.983
37.605
37.38
37.337
37.441
37.627
37.816
37.944
37.971
37.895
37.713
37.427
37.053
36.648
36.265
35.885
35.503
35.149
34.847
34.589
34.364
34.177
34.02
33.885
33.784
33.724
33.689
33.667
33.651
33.625
33.565
33.47
33.368
33.289
33.317
33.602
34.308
35.495
37.038
38.69
40.168
41.247
41.84
41.963
41.701
41.197
40.598
40.0
39.427
38.872
38.337
37.856
37.481
37.268
37.243
37.379
37.595
37.822
37.999
38.066
38.004
37.829
37.548
37.18
36.765
36.339
35.938
35.579
35.262
34.978
34.726
34.501
34.304
34.14
34.007
33.896
33.816
33.778
33.762
33.738
33.704
33.67
33.631
33.568
33.473
33.372
33.339
33.546
34.177
35.317
36.856
38.526
40.043
41.194
41.862
42.061
41.885
41.442
40.844
40.203
39.573
38.951
38.349
37.819
37.437
37.256
37.253
37.378
37.593
37.826
38.016
38.119
38.093
37.939
37.675
37.324
36.919
36.501
36.1
35.722
35.352
35.008
34.724
34.497
34.311
34.159
34.038
33.931
33.841
33.79
33.77
33.745
33.712
33.684
33.649
33.596
33.521
33.416
33.303
33.307
33.636
34.454
35.758
37.385
39.06
40.49
41.468
41.952
42.01
41.732
41.214
40.575
39.913
39.273
38.661
38.074
37.548
37.155
36.965
36.996
37.2
37.502
37.793
37.986
38.054
37.987
37.794
37.505
37.147
36.741
36.313
35.899
35.529
35.2
34.884
34.6
34.363
34.163
33.99
33.844
33.74
33.675
33.642
33.631
33.627
33.621
33.596
33.539
33.446
33.342
33.254
33.277
33.581
34.322
35.535
37.098
38.752
40.217
41.289
41.867
41.968
41.689
41.159
40.504
39.826
39.151
38.491
37.86
37.292
36.864
36.649
36.667
36.866
37.166
37.486
37.745
37.888
37.879
37.72
37.44
37.074
36.656
36.22
35.793
35.401
35.047
34.722
34.437
34.199
34.004
33.842
33.696
33.572
33.496
33.469
33.461
33.449
33.432
33.4
33.338
33.257
33.192
33.178
33.325
33.829
34.826
36.27
37.941
39.53
40.778
41.568
41.891
41.791
41.348
40.686
39.948
39.215
38.505
37.822
37.199
36.696
36.383
36.31
36.466
36.779
37.141
37.454
37.66
37.742
37.683
37.488
37.178
36.794
36.374
35.95
35.539
35.147
34.789
34.466
34.187
33.963
33.781
33.636
33.535
33.473
33.431
33.394
33.377
33.375
33.361
33.315
33.249
33.225
33.371
33.849
34.758
36.076
37.63
39.153
40.384
41.159
41.446
41.32
40.895
40.274
39.554
38.804
38.052
37.309
36.625
36.091
35.796
35.768
35.978
36.361
36.817
37.237
37.524
37.638
37.59
37.424
37.173
36.841
36.447
36.009
35.564
35.167
34.843
34.587
34.379
34.195
34.036
33.917
33.829
33.768
33.708
33.63
33.558
33.568
33.805
34.417
35.472
36.911
38.515
40.003
41.149
41.828
42.016
41.792
41.272
40.583
39.831
39.07
38.314
37.587
36.945
36.461
36.197
36.185
36.4
36.766
37.188
37.577
37.827
37.887
37.774
37.533
37.201
36.804
36.373
35.938
35.539
35.192
34.886
34.623
34.398
34.205
34.036
33.898
33.777
33.668
33.6
33.673
34.052
34.893
36.25
37.987
39.823
41.456
42.654
43.312
43.461
43.216
42.701
42.036
41.332
40.645
39.987
39.37
38.817
38.371
38.083
37.98
38.043
38.226
38.463
38.675
38.797
38.778
38.609
38.336
37.985
37.564
37.105
36.656
36.249
35.877
35.531
35.211
34.935
34.731
34.582
34.465
34.349
34.229
34.173
34.321
34.84
35.868
37.393
39.195
40.936
42.326
43.217
43.592
43.542
43.183
42.615
41.955
41.312
40.727
40.167
39.626
39.132
38.733
38.474
38.387
38.461
38.627
38.797
38.915
38.93
38.802
38.545
38.195
37.779
37.328
36.869
36.427
36.015
35.639
35.325
35.091
34.905
34.73
34.566
34.413
34.264
34.136
34.047
34.036
34.212
34.729
35.699
37.091
38.714
40.271
41.488
42.227
42.484
42.342
41.935
41.4
40.835
40.297
39.795
39.299
38.794
38.316
37.939
37.725
37.685
37.763
37.896
38.022
38.077
38.009
37.81
37.52
37.179
36.801
36.391
35.976
35.578
35.226
34.935
34.686
34.452
34.227
34.029
33.883
33.796
33.745
33.703
33.648
33.57
33.467
33.361
33.247
33.162
33.234
33.631
34.469
35.708
37.14
38.499
39.546
40.165
40.36
40.222
39.892
39.473
39.026
38.587
38.176
37.77
37.366
37.014
36.761
36.628
36.614
36.704
36.847
36.967
37.006
36.933
36.744
36.476
36.17
35.85
35.523
35.19
34.858
34.562
34.308
34.094
33.918
33.769
33.639
33.531
33.442
33.375
33.327
33.3
33.285
33.258
33.186
33.065
32.926
32.799
32.712
32.729
32.96
33.524
34.466
35.678
36.936
38.009
38.742
39.074
39.062
38.813
38.453
38.071
37.714
37.371
37.03
36.692
36.386
36.149
36.027
36.033
36.142
36.298
36.451
36.548
36.541
36.412
36.194
35.946
35.691
35.418
35.138
34.865
34.61
34.399
34.233
34.088
33.943
33.798
33.676
33.601
33.569
33.557
33.54
33.513
33.466
33.407
33.352
33.308
33.26
33.191
33.095
32.989
32.944
33.101
33.61
34.529
35.736
36.982
38.013
38.682
38.965
38.93
38.694
38.363
38.002
37.652
37.32
36.994
36.683
36.412
36.217
36.136
36.167
36.283
36.456
36.64
36.776
36.806
36.709
36.529
36.309
36.064
35.798
35.527
35.273
35.039
34.82
34.639
34.51
34.411
34.315
34.221
34.137
34.055
33.986
33.952
33.945
33.938
33.914
33.877
33.83
33.761
33.659
33.529
33.406
33.381
33.587
34.14
35.052
36.203
37.378
38.351
38.978
39.236
39.205
38.988
38.66
38.308
37.98
37.668
37.359
37.056
36.789
36.607
36.548
36.614
36.763
36.943
37.107
37.224
37.26
37.176
36.991
36.752
36.495
36.224
35.953
35.704
35.478
35.266
35.064
34.884
34.746
34.641
34.542
34.433
34.329
34.248
34.206
34.196
34.191
34.166
34.123
34.079
34.02
33.917
33.782
33.658
33.6
33.71
34.118
34.896
35.991
37.209
38.311
39.116
39.554
39.642
39.472
39.151
38.763
38.377
38.034
37.725
37.421
37.128
36.895
36.772
36.794
36.946
37.163
37.368
37.516
37.594
37.565
37.413
37.173
36.896
36.608
36.324
36.045
35.766
35.505
35.273
35.08
34.92
34.774
34.641
34.537
34.462
34.418
34.4
34.377
34.338
34.281
34.212
34.124
34.01
33.89
33.809
33.843
34.113
34.709
35.613
36.669
37.656
38.392
38.798
38.878
38.701
38.364
37.947
37.514
37.097
36.699
36.329
36.014
35.795
35.713
35.783
35.987
36.263
36.522
36.68
36.714
36.641
36.48
36.246
35.981
35.715
35.452
35.19
34.932
34.692
34.483
34.304
34.156
34.04
33.947
33.859
33.764
33.68
33.624
33.577
33.512
33.446
33.423
33.526
33.866
34.524
35.465
36.539
37.531
38.269
38.688
38.799
38.664
38.373
37.997
37.592
37.212
36.878
36.563
36.261
35.99
35.808
35.763
35.865
36.061
36.271
36.439
36.524
36.51
36.396
36.203
35.954
35.671
35.382
35.117
34.871
34.626
34.39
34.192
34.045
33.94
33.842
33.753
33.678
33.612
33.546
33.493
33.449
33.398
33.335
33.32
33.464
33.898
34.686
35.745
36.894
37.933
38.702
39.131
39.246
39.125
38.853
38.525
38.207
37.932
37.687
37.436
37.184
36.948
36.755
36.654
36.67
36.776
36.918
37.033
37.086
37.066
36.959
36.766
36.519
36.253
35.991
35.734
35.49
35.255
35.025
34.81
34.631
34.487
34.368
34.272
34.195
34.132
34.072
34.014
33.969
33.935
33.889
33.798
33.687
33.63
33.74
34.139
34.896
35.972
37.186
38.314
39.178
39.695
39.883
39.808
39.556
39.205
38.829
38.494
38.204
37.922
37.643
37.395
37.206
37.108
37.121
37.232
37.394
37.539
37.617
37.6
37.481
37.286
37.047
36.778
36.492
36.211
35.942
35.677
35.432
35.211
35.006
34.84
34.71
34.606
34.532
34.483
34.445
34.397
34.334
34.276
34.219
34.147
34.058
33.993
34.035
34.302
34.91
35.853
36.997
38.15
39.122
39.795
40.139
40.199
40.058
39.8
39.475
39.108
38.71
38.304
37.923
37.609
37.415
37.378
37.482
37.685
37.935
38.163
38.312
38.346
38.271
38.111
37.881
37.61
37.316
37.016
36.731
36.461
36.208
35.987
35.794
35.608
35.441
35.319
35.243
35.193
35.149
35.091
35.025
34.957
34.901
34.882
34.985
35.336
36.041
37.104
38.381
39.654
40.727
41.464
41.83
41.864
41.638
41.235
40.757
40.284
39.849
39.441
39.031
38.64
38.323
38.127
38.096
38.205
38.39
38.579
38.711
38.749
38.672
38.489
38.213
37.87
37.497
37.115
36.742
36.394
36.082
35.799
35.544
35.32
35.128
34.981
34.882
34.8
34.71
34.621
34.539
34.463
34.398
34.385
34.548
35.04
35.938
37.163
38.502
39.711
40.594
41.075
41.186
41.007
40.623
40.133
39.624
39.151
38.713
38.285
37.878
37.543
37.335
37.277
37.346
37.506
37.706
37.864
37.918
37.836
37.65
37.399
37.102
36.761
36.401
36.034
35.679
35.358
35.067
34.805
34.581
34.383
34.211
34.06
33.93
33.816
33.715
33.61
33.497
33.383
33.299
33.316
33.548
34.1
34.99
36.096
37.207
38.127
38.725
38.968
38.89
38.585
38.166
37.713
37.273
36.847
36.439
36.067
35.771
35.59
35.551
35.645
35.838
36.088
36.333
36.522
36.6
36.535
36.353
36.105
35.831
35.568
35.327
35.103
34.893
34.703
34.528
34.382
34.273
34.196
34.136
34.091
34.055
34.012
33.962
33.903
33.823
33.728
33.657
33.7
33.973
34.56
35.43
36.414
37.323
38.001
38.353
38.392
38.193
37.852
37.441
37.018
36.611
36.229
35.88
35.582
35.362
35.256
35.284
35.431
35.656
35.897
36.083
36.164
36.127
35.986
35.783
35.543
35.27
34.986
34.721
34.488
34.27
34.062
33.869
33.707
33.58
33.466
33.367
33.295
33.25
33.22
33.182
33.123
33.06
33.028
33.07
33.274
33.747
34.54
35.544
36.558
37.396
37.95
38.198
38.165
37.924
37.566
37.158
36.764
36.406
36.084
35.801
35.567
35.411
35.356
35.417
35.581
35.811
36.04
36.216
36.303
36.288
36.169
35.962
35.698
35.417
35.154
34.93
34.74
34.573
34.421
34.279
34.15
34.031
33.925
33.838
33.785
33.749
33.712
33.665
33.613
33.565
33.542
33.569
33.721
34.11
34.81
35.768
36.823
37.783
38.49
38.875
38.953
38.793
38.478
38.105
37.737
37.39
37.058
36.743
36.462
36.25
36.15
36.189
36.343
36.567
36.8
36.993
37.12
37.149
37.066
36.885
36.645
36.394
36.147
35.911
35.684
35.48
35.298
35.134
34.993
34.875
34.773
34.692
34.624
34.568
34.522
34.48
34.441
34.402
34.35
34.295
34.303
34.487
34.972
35.787
36.826
37.876
38.735
39.302
39.539
39.478
39.216
38.852
38.458
38.072
37.694
37.34
37.034
36.785
36.624
36.577
36.654
36.836
37.077
37.328
37.521
37.602
37.558
37.417
37.212
36.967
36.695
36.401
36.108
35.845
35.618
35.433
35.27
35.115
34.975
34.856
34.78
34.735
34.692
34.649
34.601
34.538
34.477
34.428
34.417
34.537
34.906
35.605
36.581
37.662
38.64
39.368
39.779
39.859
39.671
39.323
38.919
38.518
38.145
37.792
37.458
37.163
36.933
36.813
36.828
36.989
37.253
37.542
37.773
37.893
37.89
37.783
37.593
37.346
37.072
36.786
36.506
36.247
36.012
35.795
35.596
35.42
35.287
35.196
35.119
35.04
34.96
34.884
34.817
34.758
34.703
34.65
34.625
34.707
35.03
35.686
36.653
37.798
38.93
39.855
40.454
40.702
40.636
40.345
39.946
39.52
39.107
38.72
38.349
37.999
37.713
37.545
37.541
37.697
37.955
38.246
38.498
38.664
38.724
38.682
38.531
38.297
38.013
37.694
37.365
37.051
36.772
36.521
36.285
36.073
35.901
35.767
35.661
35.558
35.458
35.369
35.298
35.247
35.203
35.152
35.115
35.19
35.527
36.223
37.25
38.456
39.638
40.615
41.262
41.516
41.418
41.102
40.673
40.193
39.71
39.234
38.766
38.339
38.018
37.837
37.818
37.951
38.2
38.504
38.783
38.955
38.992
38.899
38.698
38.421
38.095
37.73
37.355
37.0
36.682
36.409
36.165
35.936
35.716
35.519
35.368
35.264
35.191
35.127
35.062
34.996
34.929
34.873
34.886
35.081
35.597
36.498
37.712
39.058
40.286
41.193
41.697
41.808
41.605
41.182
40.649
40.085
39.538
39.023
38.553
38.14
37.826
37.661
37.659
37.818
38.105
38.428
38.683
38.814
38.804
38.649
38.378
38.039
37.662
37.271
36.878
36.516
36.198
35.916
35.664
35.441
35.258
35.116
35.009
34.926
34.847
34.766
34.691
34.625
34.552
34.493
34.535
34.835
35.523
36.602
37.935
39.306
40.484
41.296
41.659
41.618
41.286
40.786
40.21
39.619
39.05
38.502
37.996
37.575
37.29
37.185
37.278
37.519
37.823
38.12
38.337
38.425
38.367
38.166
37.859
37.485
37.067
36.641
36.244
35.897
35.588
35.305
35.041
34.807
34.617
34.485
34.392
34.311
34.238
34.163
34.077
33.989
33.902
33.852
33.931
34.289
35.04
36.177
37.534
38.85
39.898
40.56
40.808
40.683
40.276
39.706
39.09
38.493
37.929
37.396
36.907
36.523
36.311
36.29
36.435
36.696
37.0
37.279
37.476
37.548
37.483
37.29
36.997
36.65
36.284
35.919
35.569
35.236
34.936
34.674
34.454
34.283
34.148
34.036
33.954
33.892
33.832
33.765
33.697
33.624
33.578
33.647
33.965
34.645
35.683
36.972
38.321
39.506
40.334
40.726
40.709
40.371
39.846
39.254
38.664
38.094
37.56
37.068
36.645
36.367
36.287
36.397
36.653
36.972
37.268
37.484
37.577
37.527
37.36
37.103
36.765
36.393
36.028
35.683
35.364
35.063
34.788
34.554
34.369
34.234
34.128
34.028
33.947
33.895
33.86
33.818
33.753
33.694
33.702
33.894
34.416
35.343
36.606
38.015
39.338
40.35
40.926
41.067
40.846
40.385
39.799
39.164
38.545
37.971
37.451
37.002
36.68
36.527
36.561
36.77
37.087
37.431
37.723
37.907
37.948
37.837
37.58
37.222
36.835
36.467
36.119
35.775
35.442
35.146
34.9
34.698
34.519
34.374
34.274
34.217
34.183
34.145
34.101
34.053
33.999
33.958
34.022
34.35
35.078
36.208
37.602
39.032
40.254
41.078
41.443
41.385
41.002
40.42
39.758
39.101
38.49
37.925
37.422
37.038
36.821
36.804
36.986
37.313
37.694
38.03
38.26
38.35
38.284
38.061
37.745
37.41
37.079
36.745
36.421
36.141
35.913
35.709
35.533
35.398
35.298
35.224
35.155
35.093
35.038
34.974
34.905
34.829
34.765
34.776
34.983
35.532
36.493
37.802
39.259
40.619
41.646
42.186
42.229
41.875
41.279
40.591
39.908
39.269
38.666
38.097
37.602
37.25
37.109
37.179
37.421
37.781
38.166
38.472
38.62
38.577
38.37
38.039
37.632
37.189
36.745
36.324
35.944
35.609
35.323
35.081
34.869
34.684
34.527
34.405
34.322
34.265
34.215
34.158
34.085
34.04
34.107
34.402
35.058
36.128
37.516
38.997
40.302
41.203
41.591
41.496
41.051
40.418
39.711
38.994
38.307
37.679
37.119
36.663
36.373
36.294
36.418
36.711
37.106
37.488
37.759
37.883
37.847
37.647
37.318
36.917
36.489
36.061
35.656
35.292
34.98
34.707
34.459
34.255
34.098
33.978
33.888
33.811
33.748
33.699
33.65
33.596
33.557
33.61
33.915
34.612
35.74
37.203
38.781
40.183
41.156
41.585
41.519
41.092
40.454
39.733
39.011
38.328
37.703
37.147
36.681
36.367
36.264
36.387
36.699
37.104
37.495
37.794
37.94
37.9
37.684
37.356
36.972
36.559
36.134
35.724
35.353
35.034
34.759
34.521
34.315
34.156
34.047
33.969
33.909
33.87
33.846
33.812
33.76
33.728
33.805
34.133
34.84
35.97
37.421
38.964
40.332
41.302
41.762
41.732
41.317
40.666
39.909
39.146
38.426
37.771
37.196
36.736
36.459
36.425
36.621
36.988
37.428
37.843
38.138
38.251
38.183
37.971
37.646
37.244
36.817
36.388
35.969
35.586
35.252
34.967
34.719
34.504
34.339
34.22
34.132
34.07
34.038
34.019
33.996
33.96
33.924
33.968
34.246
34.901
35.988
37.405
38.923
40.276
41.233
41.664
41.603
41.168
40.49
39.694
38.876
38.109
37.414
36.803
36.339
36.084
36.058
36.253
36.626
37.092
37.544
37.885
38.054
38.032
37.833
37.492
37.07
36.624
36.18
35.757
35.371
35.033
34.727
34.461
34.253
34.111
34.005
33.91
33.829
33.777
33.74
33.707
33.685
33.694
33.816
34.215
35.04
36.304
37.858
39.429
40.732
41.568
41.86
41.661
41.115
40.376
39.573
38.78
38.027
37.329
36.736
36.312
36.118
36.19
36.505
36.988
37.542
38.07
38.464
38.647
38.605
38.391
38.063
37.673
37.241
36.802
36.399
36.05
35.738
35.459
35.216
34.999
34.808
34.648
34.513
34.401
34.306
34.216
34.127
34.068
34.1
34.362
35.025
36.153
37.628
39.191
40.55
41.469
41.834
41.672
41.11
40.31
39.418
38.54
37.711
36.933
36.226
35.663
35.32
35.254
35.455
35.845
36.33
36.81
37.18
37.378
37.38
37.198
36.898
36.527
36.105
35.655
35.229
34.856
34.527
34.235
33.994
33.805
33.657
33.52
33.404
33.316
33.241
33.176
33.131
33.13
33.253
33.638
34.436
35.689
37.251
38.848
40.176
41.026
41.331
41.141
40.588
39.817
38.962
38.107
37.293
36.556
35.95
35.519
35.309
35.364
35.665
36.137
36.676
37.172
37.52
37.669
37.615
37.39
37.056
36.655
36.22
35.796
35.41
35.066
34.756
34.481
34.26
34.086
33.942
33.83
33.751
33.687
33.621
33.582
33.653
33.964
34.656
35.806
37.32
38.945
40.379
41.379
41.829
41.751
41.254
40.487
39.592
38.676
37.798
37.001
36.323
35.793
35.462
35.408
35.646
36.094
36.631
37.142
37.521
37.714
37.71
37.535
37.235
36.846
36.393
35.934
35.509
35.124
34.768
34.461
34.214
34.013
33.847
33.72
33.619
33.526
33.447
33.393
33.407
33.619
34.201
35.25
36.705
38.356
39.9
41.057
41.654
41.663
41.202
40.447
39.558
38.644
37.77
36.935
36.157
35.511
35.109
35.004
35.176
35.582
36.128
36.702
37.189
37.506
37.61
37.511
37.247
36.871
36.441
36.0
35.566
35.163
34.826
34.554
34.328
34.139
33.993
33.87
33.764
33.676
33.606
33.555
33.569
33.77
34.327
35.34
36.76
38.372
39.881
41.027
41.654
41.738
41.356
40.657
39.802
38.926
38.079
37.263
36.519
35.926
35.56
35.459
35.624
36.008
36.519
37.038
37.464
37.712
37.751
37.595
37.282
36.869
36.424
35.999
35.594
35.209
34.862
34.559
34.311
34.11
33.936
33.786
33.658
33.553
33.476
33.443
33.556
33.986
34.847
36.143
37.722
39.313
40.615
41.413
41.652
41.394
40.779
39.958
39.06
38.167
37.32
36.551
35.915
35.482
35.335
35.492
35.884
36.414
36.974
37.456
37.763
37.841
37.711
37.432
37.076
36.676
36.249
35.83
35.447
35.113
34.83
34.584
34.376
34.205
34.059
33.93
33.828
33.766
33.816
34.141
34.901
36.127
37.695
39.343
40.774
41.742
42.146
42.022
41.5
40.728
39.847
38.951
38.101
37.339
36.707
36.255
36.038
36.074
36.352
36.82
37.36
37.841
38.167
38.289
38.21
37.971
37.617
37.185
36.727
36.284
35.877
35.51
35.196
34.932
34.712
34.525
34.369
34.246
34.152
34.1
34.155
34.457
35.181
36.396
37.989
39.703
41.217
42.286
42.803
42.765
42.268
41.478
40.588
39.724
38.908
38.138
37.466
36.966
36.713
36.747
37.038
37.505
38.026
38.48
38.77
38.858
38.764
38.526
38.177
37.76
37.31
36.863
36.445
36.082
35.799
35.606
35.484
35.428
35.43
35.457
35.478
35.495
35.547
35.749
36.255
37.2
38.605
40.313
42.004
43.352
44.15
44.337
43.988
43.292
42.447
41.602
40.823
40.111
39.457
38.892
38.497
38.344
38.458
38.799
39.261
39.724
40.079
40.253
40.215
39.971
39.564
39.074
38.554
38.021
37.501
37.015
36.59
36.243
35.955
35.717
35.526
35.37
35.237
35.118
35.006
34.914
34.882
35.008
35.446
36.333
37.664
39.25
40.774
41.928
42.514
42.506
42.007
41.199
40.287
39.415
38.632
37.928
37.285
36.742
36.367
36.237
36.372
36.717
37.156
37.558
37.821
37.879
37.733
37.414
36.963
36.433
35.874
35.315
34.787
34.31
33.893
33.538
33.255
33.053
32.917
32.827
32.781
32.77
32.779
32.789
32.803
32.816
32.829
32.919
33.258
34.026
35.276
36.856
38.471
39.818
40.674
40.962
40.746
40.163
39.367
38.511
37.682
36.921
36.264
35.744
35.405
35.298
35.47
35.921
36.546
37.182
37.685
37.954
37.974
37.8
37.487
37.073
36.607
36.133
35.677
35.272
34.93
34.669
34.477
34.336
34.234
34.16
34.116
34.104
34.108
34.105
34.079
34.043
34.041
34.166
34.553
35.351
36.593
38.127
39.652
40.859
41.569
41.728
41.382
40.67
39.799
38.923
38.11
37.366
36.694
36.13
35.747
35.623
35.798
36.232
36.816
37.389
37.792
37.955
37.894
37.673
37.343
36.938
36.487
36.019
35.563
35.142
34.767
34.456
34.213
34.029
33.882
33.768
33.683
33.625
33.591
33.566
33.546
33.533
33.56
33.735
34.238
35.214
36.634
38.278
39.828
41.018
41.678
41.767
41.354
40.608
39.723
38.836
38.006
37.239
36.542
35.963
35.587
35.491
35.689
36.098
36.586
37.032
37.353
37.497
37.448
37.217
36.837
36.354
35.818
35.275
34.744
34.255
33.839
33.497
33.217
33.003
32.85
32.744
32.681
32.654
32.638
32.613
32.581
32.544
32.516
32.568
32.847
33.527
34.67
36.142
37.677
38.984
39.849
40.186
40.036
39.519
38.786
37.966
37.144
36.355
35.632
35.022
34.591
34.404
34.486
34.803
35.29
35.831
36.3
36.606
36.702
36.599
36.338
35.974
35.564
35.142
34.73
34.35
34.015
33.751
33.549
33.383
33.255
33.167
33.11
33.074
33.046
33.016
32.991
32.981
33.022
33.219
33.716
34.61
35.857
37.274
38.602
39.598
40.127
40.168
39.804
39.182
38.447
37.703
36.989
36.322
35.729
35.266
35.0
34.975
35.203
35.626
36.133
36.611
36.962
37.125
37.095
36.915
36.624
36.251
35.826
35.402
35.023
34.705
34.435
34.203
33.998
33.816
33.671
33.577
33.523
33.493
33.479
33.471
33.45
33.437
33.485
33.722
34.315
35.334
36.69
38.156
39.461
40.372
40.777
40.706
40.286
39.655
38.933
38.211
37.547
36.963
36.448
36.023
35.754
35.698
35.861
36.18
36.55
36.862
37.05
37.088
36.989
36.776
36.467
36.086
35.655
35.222
34.835
34.504
34.231
33.997
33.791
33.65
33.576
33.536
33.502
33.456
33.411
33.371
33.319
33.252
33.196
33.208
33.41
33.972
34.981
36.343
37.816
39.097
39.99
40.411
40.362
39.938
39.295
38.576
37.876
37.24
36.669
36.17
35.774
35.535
35.511
35.711
36.073
36.506
36.908
37.199
37.326
37.275
37.068
36.737
36.336
35.917
35.534
35.198
34.881
34.576
34.303
34.079
33.914
33.808
33.752
33.738
33.755
33.782
33.8
33.791
33.767
33.765
33.857
34.183
34.902
36.048
37.467
38.88
40.021
40.737
40.997
40.849
40.402
39.788
39.12
38.472
37.879
37.344
36.876
36.522
36.349
36.397
36.655
37.045
37.471
37.822
38.024
38.061
37.945
37.697
37.351
36.959
36.55
36.16
35.807
35.494
35.216
34.978
34.782
34.628
34.512
34.434
34.388
34.365
34.344
34.306
34.253
34.196
34.18
34.319
34.764
35.631
36.908
38.433
39.932
41.131
41.861
42.096
41.908
41.406
40.748
40.076
39.464
38.915
38.425
38.005
37.677
37.489
37.479
37.647
37.94
38.269
38.542
38.696
38.701
38.554
38.267
37.875
37.438
37.009
36.602
36.208
35.826
35.481
35.199
34.99
34.854
34.754
34.661
34.577
34.514
34.474
34.444
34.398
34.323
34.264
34.321
34.651
35.381
36.535
37.974
39.428
40.627
41.394
41.676
41.54
41.116
40.535
39.91
39.312
38.781
38.303
37.851
37.461
37.203
37.11
37.192
37.419
37.715
37.998
38.177
38.189
38.045
37.79
37.452
37.049
36.627
36.227
35.858
35.525
35.217
34.933
34.687
34.478
34.312
34.194
34.113
34.055
33.999
33.927
33.847
33.759
33.702
33.774
34.145
34.934
36.103
37.46
38.757
39.772
40.358
40.487
40.244
39.746
39.102
38.433
37.818
37.253
36.723
36.258
35.923
35.79
35.868
36.104
36.42
36.746
37.006
37.148
37.137
36.964
36.664
36.302
35.93
35.563
35.207
34.866
34.558
34.312
34.124
33.97
33.828
33.691
33.572
33.487
33.461
33.55
33.853
34.482
35.458
36.658
37.86
38.831
39.416
39.579
39.397
38.982
38.437
37.847
37.267
36.72
36.201
35.735
35.39
35.248
35.326
35.585
35.941
36.307
36.604
36.754
36.722
36.537
36.254
35.914
35.559
35.206
34.875
34.583
34.344
34.142
33.961
33.795
33.626
33.467
33.357
33.357
33.583
34.158
35.106
36.293
37.492
38.484
39.125
39.377
39.283
38.928
38.43
37.883
37.342
36.834
36.37
35.959
35.639
35.467
35.486
35.682
35.97
36.258
36.478
36.596
36.588
36.449
36.197
35.893
35.589
35.303
35.029
34.757
34.488
34.234
34.018
33.854
33.738
33.648
33.572
33.549
33.701
34.161
34.982
36.06
37.178
38.112
38.696
38.905
38.81
38.504
38.076
37.598
37.13
36.686
36.26
35.87
35.572
35.425
35.452
35.624
35.881
36.15
36.367
36.487
36.481
36.352
36.123
35.83
35.527
35.244
34.972
34.708
34.469
34.267
34.101
33.953
33.817
33.697
33.595
33.534
33.548
33.711
34.116
34.825
35.766
36.777
37.654
38.239
38.473
38.416
38.145
37.742
37.288
36.848
36.446
36.083
35.755
35.509
35.406
35.46
35.64
35.896
36.161
36.372
36.481
36.465
36.339
36.146
35.919
35.659
35.388
35.128
34.885
34.65
34.432
34.251
34.107
33.997
33.918
33.854
33.782
33.704
33.659
33.719
33.983
34.516
35.293
36.184
37.003
37.594
37.888
37.887
37.654
37.27
36.826
36.381
35.958
35.559
35.206
34.948
34.823
34.852
35.034
35.321
35.632
35.886
36.035
36.059
35.959
35.765
35.527
35.291
35.068
34.854
34.644
34.452
34.296
34.185
34.102
34.04
34.008
33.994
33.981
33.971
33.982
34.013
34.05
34.123
34.322
34.751
35.422
36.24
37.036
37.666
38.039
38.132
37.985
37.677
37.304
36.912
36.51
36.128
35.796
35.552
35.437
35.487
35.707
36.051
36.423
36.727
36.9
36.937
36.859
36.692
36.478
36.256
36.035
35.815
35.593
35.379
35.191
35.031
34.885
34.753
34.652
34.579
34.515
34.448
34.394
34.371
34.426
34.653
35.145
35.909
36.822
37.703
38.392
38.78
38.858
38.684
38.344
37.914
37.456
37.008
36.584
36.205
35.916
35.762
35.773
35.951
36.235
36.546
36.828
37.038
37.132
37.104
36.975
36.785
36.561
36.308
36.041
35.786
35.552
35.345
35.164
35.002
34.852
34.716
34.602
34.505
34.43
34.402
34.481
34.763
35.327
36.156
37.127
38.061
38.793
39.218
39.306
39.107
38.729
38.264
37.77
37.272
36.796
36.374
36.041
35.847
35.841
36.028
36.349
36.714
37.044
37.282
37.395
37.38
37.256
37.042
36.774
36.49
36.224
35.986
35.763
35.553
35.359
35.173
35.006
34.872
34.767
34.678
34.608
34.565
34.593
34.783
35.242
36.009
36.993
38.009
38.863
39.427
39.662
39.588
39.275
38.824
38.299
37.752
37.222
36.741
36.341
36.089
36.029
36.162
36.449
36.816
37.185
37.487
37.665
37.699
37.605
37.406
37.137
36.831
36.525
36.234
35.944
35.653
35.382
35.137
34.916
34.72
34.566
34.437
34.326
34.235
34.219
34.365
34.753
35.414
36.277
37.189
37.981
38.506
38.714
38.637
38.345
37.902
37.374
36.808
36.241
35.729
35.33
35.094
35.053
35.205
35.509
35.904
36.3
36.608
36.779
36.813
36.742
36.584
36.355
36.097
35.839
35.591
35.351
35.14
34.968
34.816
34.668
34.541
34.458
34.409
34.378
34.413
34.609
35.045
35.713
36.53
37.351
38.024
38.452
38.611
38.51
38.176
37.678
37.089
36.466
35.876
35.388
35.064
34.956
35.086
35.415
35.842
36.248
36.564
36.769
36.853
36.818
36.687
36.506
36.298
36.07
35.847
35.644
35.452
35.26
35.076
34.92
34.805
34.724
34.694
34.803
35.196
35.955
37.012
38.182
39.246
39.998
40.349
40.331
40.025
39.537
38.973
38.389
37.823
37.315
36.894
36.597
36.491
36.623
36.942
37.339
37.704
37.977
38.12
38.129
38.025
37.818
37.53
37.213
36.898
36.604
36.344
36.116
35.917
35.737
35.577
35.44
35.346
35.311
35.412
35.779
36.514
37.59
38.852
40.07
41.011
41.525
41.6
41.328
40.845
40.277
39.698
39.138
38.623
38.183
37.855
37.693
37.727
37.937
38.271
38.636
38.929
39.08
39.079
38.928
38.651
38.303
37.929
37.555
37.211
36.915
36.651
36.398
36.181
36.022
35.896
35.789
35.708
35.674
35.74
36.014
36.612
37.552
38.702
39.857
40.79
41.351
41.505
41.296
40.829
40.245
39.661
39.14
38.7
38.329
38.038
37.882
37.894
38.066
38.351
38.652
38.871
38.955
38.896
38.709
38.419
38.062
37.679
37.313
36.986
36.695
36.439
36.222
36.043
35.898
35.786
35.695
35.609
35.527
35.46
35.421
35.432
35.562
35.906
36.552
37.483
38.55
39.527
40.214
40.51
40.431
40.084
39.604
39.098
38.616
38.177
37.79
37.48
37.292
37.266
37.414
37.686
37.978
38.196
38.3
38.265
38.079
37.768
37.385
36.981
36.6
36.276
36.0
35.759
35.558
35.405
35.288
35.19
35.095
35.001
34.907
34.811
34.701
34.568
34.412
34.236
34.056
33.916
33.889
34.07
34.549
35.317
36.248
37.146
37.834
38.201
38.205
37.906
37.437
36.922
36.415
35.935
35.504
35.162
34.955
34.913
35.035
35.273
35.542
35.753
35.864
35.856
35.72
35.464
35.134
34.793
34.472
34.178
33.905
33.649
33.421
33.219
33.046
32.911
32.828
32.793
32.779
32.764
32.742
32.721
32.687
32.631
32.551
32.467
32.4
32.352
32.364
32.535
32.957
33.657
34.547
35.436
36.137
36.554
36.673
36.54
36.229
35.821
35.375
34.917
34.49
34.168
34.005
34.013
34.187
34.494
34.863
35.213
35.468
35.573
35.532
35.382
35.163
34.912
34.661
34.424
34.211
34.031
33.885
33.757
33.634
33.539
33.481
33.436
33.399
33.388
33.407
33.46
33.599
33.901
34.403
35.071
35.806
36.469
36.939
37.159
37.14
36.932
36.581
36.144
35.679
35.233
34.846
34.571
34.478
34.58
34.83
35.153
35.472
35.708
35.823
35.82
35.728
35.563
35.344
35.104
34.877
34.666
34.461
34.274
34.11
33.974
33.861
33.772
33.734
33.815
34.127
34.758
35.697
36.84
38.005
38.975
39.598
39.823
39.702
39.362
38.946
38.538
38.18
37.867
37.563
37.286
37.093
37.017
37.079
37.253
37.464
37.637
37.724
37.694
37.548
37.305
36.999
36.657
36.308
35.987
35.703
35.452
35.237
35.047
34.874
34.717
34.577
34.483
34.498
34.708
35.216
36.074
37.205
38.396
39.412
40.079
40.337
40.253
39.947
39.559
39.177
38.843
38.544
38.228
37.91
37.635
37.447
37.377
37.415
37.526
37.661
37.769
37.793
37.708
37.512
37.226
36.895
36.566
36.261
35.963
35.672
35.405
35.168
34.969
34.818
34.699
34.609
34.579
34.72
35.154
35.932
36.994
38.135
39.116
39.777
40.049
39.991
39.726
39.366
38.998
38.646
38.305
37.955
37.606
37.308
37.121
37.069
37.143
37.304
37.478
37.595
37.604
37.491
37.274
36.99
36.666
36.327
36.004
35.704
35.431
35.182
34.951
34.749
34.588
34.483
34.477
34.686
35.222
36.131
37.322
38.573
39.641
40.343
40.63
40.571
40.29
39.931
39.6
39.314
39.048
38.752
38.416
38.09
37.838
37.703
37.698
37.768
37.859
37.924
37.905
37.782
37.571
37.286
36.959
36.622
36.29
35.981
35.714
35.47
35.24
35.046
34.883
34.734
34.608
34.574
34.726
35.169
35.986
37.119
38.366
39.485
40.284
40.7
40.768
40.595
40.297
39.959
39.654
39.379
39.086
38.738
38.352
38.0
37.761
37.67
37.7
37.784
37.847
37.839
37.738
37.532
37.24
36.898
36.536
36.171
35.826
35.508
35.212
34.94
34.708
34.537
34.415
34.326
34.253
34.182
34.106
34.023
33.943
33.85
33.734
33.616
33.584
33.767
34.305
35.26
36.531
37.893
39.092
39.94
40.363
40.42
40.24
39.956
39.667
39.412
39.164
38.881
38.574
38.278
38.051
37.954
37.993
38.131
38.299
38.414
38.405
38.247
37.964
37.603
37.209
36.812
36.436
36.095
35.796
35.546
35.345
35.185
35.067
34.982
34.891
34.78
34.657
34.558
34.509
34.575
34.863
35.462
36.38
37.52
38.687
39.661
40.292
40.534
40.461
40.195
39.86
39.536
39.23
38.909
38.549
38.179
37.863
37.654
37.588
37.658
37.806
37.949
38.006
37.936
37.733
37.417
37.038
36.658
36.289
35.924
35.584
35.285
35.023
34.792
34.581
34.397
34.256
34.155
34.072
33.984
33.881
33.768
33.664
33.594
33.627
33.882
34.504
35.542
36.895
38.345
39.622
40.523
40.965
40.99
40.744
40.389
40.057
39.807
39.592
39.314
38.933
38.511
38.157
37.946
37.895
37.968
38.086
38.175
38.162
38.02
37.765
37.415
36.997
36.547
36.108
35.704
35.346
35.026
34.753
34.533
34.351
34.215
34.134
34.092
34.029
33.927
33.821
33.719
33.604
33.49
33.413
33.451
33.741
34.417
35.519
36.926
38.38
39.599
40.387
40.694
40.596
40.253
39.836
39.438
39.07
38.705
38.327
37.945
37.608
37.385
37.312
37.386
37.573
37.781
37.908
37.878
37.682
37.354
36.946
36.503
36.065
35.662
35.301
34.981
34.705
34.466
34.253
34.064
33.908
33.781
33.676
33.59
33.538
33.557
33.735
34.222
35.116
36.387
37.869
39.292
40.387
41.017
41.182
40.999
40.616
40.172
39.768
39.417
39.07
38.665
38.211
37.779
37.461
37.326
37.37
37.5
37.63
37.68
37.6
37.399
37.083
36.681
36.248
35.807
35.377
34.977
34.612
34.277
33.982
33.746
33.572
33.455
33.391
33.357
33.327
33.281
33.223
33.142
33.044
32.946
32.889
32.965
33.347
34.216
35.579
37.24
38.891
40.22
41.045
41.343
41.231
40.882
40.457
40.064
39.71
39.347
38.94
38.505
38.105
37.809
37.667
37.697
37.845
38.025
38.149
38.145
37.973
37.642
37.201
36.71
36.229
35.788
35.385
35.015
34.688
34.412
34.197
34.04
33.93
33.86
33.806
33.735
33.64
33.547
33.458
33.38
33.389
33.628
34.246
35.317
36.764
38.329
39.719
40.698
41.164
41.162
40.845
40.376
39.878
39.411
38.961
38.496
38.015
37.56
37.228
37.082
37.133
37.317
37.529
37.663
37.666
37.53
37.269
36.904
36.472
36.004
35.526
35.079
34.687
34.343
34.043
33.808
33.632
33.493
33.396
33.336
33.287
33.234
33.167
33.085
32.992
32.904
32.838
32.857
33.135
33.862
35.103
36.753
38.542
40.128
41.234
41.753
41.766
41.453
41.002
40.544
40.139
39.76
39.361
38.924
38.467
38.058
37.781
37.683
37.743
37.888
38.023
38.069
37.978
37.734
37.361
36.901
36.399
35.892
35.396
34.944
34.574
34.28
34.035
33.834
33.671
33.537
33.451
33.42
33.409
33.392
33.365
33.31
33.217
33.108
32.994
32.868
32.731
32.645
32.772
33.308
34.393
35.984
37.832
39.586
40.915
41.647
41.784
41.473
40.926
40.326
39.776
39.301
38.855
38.398
37.963
37.617
37.411
37.374
37.492
37.7
37.896
37.997
37.943
37.72
37.348
36.871
36.35
35.843
35.374
34.943
34.553
34.23
33.989
33.804
33.648
33.52
33.438
33.385
33.339
33.277
33.197
33.118
33.069
33.13
33.453
34.214
35.464
37.086
38.801
40.282
41.277
41.701
41.632
41.243
40.726
40.221
39.769
39.336
38.892
38.423
37.97
37.6
37.372
37.312
37.391
37.545
37.676
37.699
37.575
37.307
36.932
36.498
36.041
35.585
35.128
34.685
34.28
33.929
33.659
33.467
33.323
33.199
33.095
33.024
32.99
32.977
32.973
32.949
32.889
32.802
32.695
32.576
32.473
32.455
32.689
33.395
34.687
36.449
38.393
40.143
41.377
41.96
41.968
41.597
41.053
40.498
40.019
39.603
39.198
38.772
38.343
37.973
37.727
37.656
37.755
37.953
38.15
38.246
38.186
37.961
37.592
37.127
36.624
36.131
35.672
35.263
34.9
34.577
34.302
34.079
33.903
33.783
33.715
33.683
33.665
33.635
33.573
33.494
33.404
33.284
33.145
33.033
33.012
33.215
33.833
34.975
36.578
38.385
40.049
41.258
41.849
41.86
41.454
40.834
40.18
39.598
39.084
38.603
38.133
37.698
37.354
37.166
37.173
37.335
37.575
37.781
37.869
37.81
37.597
37.25
36.8
36.298
35.81
35.35
34.922
34.543
34.218
33.947
33.723
33.542
33.404
33.308
33.236
33.192
33.184
33.192
33.182
33.149
33.094
33.016
32.912
32.778
32.649
32.624
32.881
33.641
35.002
36.841
38.851
40.665
41.981
42.664
42.739
42.376
41.793
41.171
40.613
40.157
39.762
39.369
38.959
38.573
38.274
38.124
38.155
38.312
38.503
38.627
38.615
38.441
38.11
37.659
37.126
36.573
36.068
35.624
35.229
34.875
34.559
34.299
34.104
33.96
33.863
33.796
33.738
33.687
33.654
33.639
33.637
33.622
33.566
33.464
33.328
33.163
32.986
32.836
32.786
32.996
33.675
34.95
36.736
38.73
40.542
41.858
42.531
42.584
42.19
41.553
40.858
40.2
39.607
39.054
38.523
38.035
37.663
37.486
37.532
37.756
38.046
38.288
38.396
38.33
38.11
37.751
37.291
36.78
36.257
35.75
35.288
34.888
34.544
34.244
34.003
33.831
33.709
33.605
33.507
33.434
33.389
33.361
33.338
33.315
33.277
33.194
33.069
32.933
32.813
32.742
32.846
33.36
34.462
36.142
38.16
40.147
41.752
42.775
43.172
43.034
42.54
41.891
41.25
40.689
40.213
39.773
39.324
38.889
38.522
38.287
38.213
38.283
38.423
38.544
38.57
38.467
38.226
37.86
37.41
36.907
36.394
35.892
35.4
34.941
34.538
34.197
33.912
33.668
33.474
33.331
33.224
33.155
33.134
33.125
33.108
33.079
33.036
32.98
32.906
32.81
32.695
32.56
32.396
32.242
32.213
32.505
33.336
34.799
36.767
38.911
40.834
42.229
42.953
43.041
42.648
41.976
41.23
40.535
39.946
39.437
38.968
38.519
38.134
37.896
37.851
37.992
38.259
38.54
38.734
38.769
38.627
38.328
37.903
37.384
36.825
36.276
35.762
35.309
34.934
34.629
34.393
34.195
34.015
33.863
33.747
33.678
33.642
33.611
33.581
33.543
33.482
33.389
33.269
33.149
33.109
33.334
34.044
35.351
37.138
39.108
40.898
42.212
42.886
42.949
42.551
41.884
41.129
40.417
39.795
39.231
38.681
38.15
37.707
37.44
37.378
37.491
37.704
37.932
38.107
38.159
38.045
37.759
37.34
36.845
36.321
35.798
35.303
34.859
34.465
34.12
33.822
33.576
33.388
33.249
33.142
33.063
33.015
32.98
32.955
32.932
32.899
32.858
32.794
32.705
32.593
32.471
32.395
32.519
33.076
34.232
35.951
37.982
39.941
41.483
42.417
42.741
42.543
41.974
41.231
40.48
39.794
39.178
38.611
38.074
37.589
37.225
37.035
37.042
37.216
37.483
37.747
37.909
37.917
37.774
37.484
37.069
36.579
36.055
35.551
35.083
34.65
34.257
33.918
33.644
33.428
33.254
33.121
33.027
32.961
32.916
32.891
32.883
32.89
32.902
32.894
32.868
32.807
32.686
32.536
32.391
32.291
32.365
32.83
33.872
35.494
37.462
39.429
41.052
42.111
42.531
42.397
41.865
41.098
40.264
39.47
38.75
38.084
37.474
36.986
36.692
36.638
36.815
37.154
37.563
37.943
38.2
38.27
38.127
37.8
37.361
36.871
36.366
35.852
35.364
34.932
34.561
34.237
33.965
33.765
33.623
33.513
33.419
33.343
33.31
33.31
33.316
33.303
33.255
33.22
33.306
33.684
34.549
35.956
37.759
39.659
41.3
42.423
42.945
42.92
42.483
41.785
40.984
40.193
39.47
38.816
38.203
37.647
37.226
37.006
37.007
37.192
37.48
37.781
38.02
38.13
38.065
37.822
37.449
37.007
36.534
36.042
35.541
35.053
34.607
34.234
33.94
33.702
33.505
33.349
33.224
33.131
33.059
33.015
33.012
33.028
33.032
33.011
32.959
32.876
32.804
32.869
33.298
34.287
35.846
37.754
39.662
41.251
42.307
42.76
42.676
42.196
41.469
40.644
39.831
39.089
38.42
37.804
37.262
36.854
36.631
36.619
36.8
37.104
37.45
37.734
37.867
37.811
37.591
37.251
36.819
36.33
35.821
35.301
34.802
34.351
33.961
33.646
33.394
33.178
32.997
32.858
32.768
32.722
32.701
32.701
32.701
32.696
32.677
32.634
32.566
32.482
32.443
32.627
33.251
34.441
36.126
38.029
39.797
41.147
41.935
42.171
41.948
41.388
40.623
39.785
38.95
38.142
37.38
36.71
36.196
35.896
35.83
35.982
36.317
36.762
37.196
37.501
37.614
37.531
37.278
36.896
36.438
35.953
35.465
34.98
34.52
34.107
33.76
33.489
33.281
33.112
32.979
32.884
32.809
32.739
32.68
32.658
32.756
33.144
34.0
35.386
37.146
38.968
40.534
41.616
42.137
42.134
41.737
41.069
40.255
39.398
38.568
37.786
37.054
36.41
35.921
35.653
35.643
35.871
36.266
36.724
37.133
37.395
37.465
37.346
37.084
36.71
36.264
35.78
35.299
34.85
34.451
34.102
33.795
33.538
33.33
33.158
33.003
32.872
32.838
33.045
33.682
34.868
36.523
38.374
40.09
41.386
42.121
42.312
42.059
41.498
40.738
39.889
39.026
38.181
37.377
36.65
36.072
35.723
35.661
35.87
36.273
36.749
37.193
37.524
37.691
37.665
37.457
37.108
36.667
36.181
35.688
35.227
34.812
34.443
34.111
33.815
33.565
33.38
33.286
33.357
33.779
34.748
36.286
38.179
40.063
41.585
42.541
42.911
42.784
42.289
41.554
40.698
39.802
38.922
38.089
37.324
36.693
36.286
36.145
36.258
36.55
36.932
37.294
37.551
37.639
37.552
37.316
36.982
36.577
36.126
35.667
35.229
34.82
34.455
34.142
33.856
33.596
33.378
33.257
33.39
34.012
35.271
37.078
39.124
41.035
42.502
43.362
43.628
43.418
42.869
42.126
41.305
40.498
39.729
38.98
38.274
37.69
37.308
37.159
37.208
37.405
37.689
37.965
38.128
38.125
37.956
37.655
37.259
36.799
36.31
35.82
35.36
34.941
34.575
34.265
34.006
33.792
33.612
33.444
33.284
33.176
33.246
33.72
34.775
36.386
38.3
40.145
41.594
42.482
42.805
42.663
42.192
41.525
40.79
40.073
39.395
38.762
38.172
37.651
37.241
36.989
36.923
37.021
37.206
37.377
37.462
37.433
37.281
37.012
36.652
36.233
35.779
35.316
34.875
34.465
34.101
33.792
33.514
33.26
33.048
32.887
32.773
32.673
32.576
32.485
32.384
32.287
32.244
32.366
32.85
33.799
35.124
36.604
37.984
39.036
39.64
39.794
39.589
39.158
38.619
38.057
37.521
37.015
36.526
36.065
35.678
35.422
35.306
35.313
35.418
35.572
35.718
35.791
35.744
35.588
35.361
35.087
34.768
34.414
34.058
33.735
33.457
33.204
32.955
32.711
32.497
32.341
32.237
32.157
32.086
32.015
31.946
31.887
31.837
31.791
31.745
31.696
31.643
31.582
31.524
31.546
31.792
32.424
33.456
34.717
35.938
36.876
37.415
37.565
37.407
37.054
36.616
36.168
35.752
35.371
35.018
34.686
34.396
34.188
34.115
34.172
34.333
34.56
34.787
34.943
34.985
34.92
34.767
34.562
34.34
34.12
33.902
33.676
33.46
33.265
33.094
32.945
32.805
32.68
32.58
32.512
32.474
32.445
32.413
32.377
32.361
32.36
32.355
32.339
32.314
32.289
32.259
32.214
32.162
32.145
32.284
32.744
33.583
34.676
35.777
36.652
37.155
37.282
37.116
36.777
36.365
35.943
35.545
35.17
34.816
34.501
34.251
34.091
34.059
34.155
34.352
34.594
34.826
35.001
35.092
35.087
34.995
34.85
34.673
34.483
34.28
34.068
33.855
33.661
33.509
33.401
33.324
33.249
33.163
33.079
33.019
32.994
32.984
32.965
32.932
32.916
32.92
32.93
32.933
32.917
32.88
32.839
32.794
32.76
32.786
32.99
33.504
34.345
35.349
36.268
36.916
37.23
37.245
37.029
36.671
36.253
35.825
35.412
35.03
34.692
34.409
34.204
34.111
34.142
34.277
34.485
34.742
35.012
35.233
35.36
35.365
35.257
35.082
34.893
34.71
34.521
34.327
34.141
33.972
33.83
33.724
33.654
33.605
33.569
33.541
33.516
33.498
33.495
33.503
33.513
33.516
33.501
33.482
33.463
33.448
33.457
33.566
33.895
34.525
35.383
36.268
36.984
37.428
37.589
37.514
37.258
36.889
36.461
36.029
35.63
35.281
34.972
34.714
34.543
34.493
34.577
34.771
35.035
35.319
35.579
35.767
35.859
35.845
35.745
35.586
35.405
35.219
35.046
34.879
34.706
34.529
34.372
34.252
34.175
34.124
34.093
34.069
34.047
34.016
33.972
33.929
33.905
33.907
33.948
34.099
34.475
35.128
35.991
36.903
37.684
38.214
38.456
38.44
38.232
37.899
37.504
37.103
36.735
36.394
36.075
35.8
35.604
35.515
35.538
35.66
35.861
36.112
36.358
36.547
36.649
36.655
36.579
36.443
36.28
36.097
35.905
35.722
35.563
35.407
35.246
35.088
34.962
34.881
34.822
34.77
34.713
34.658
34.607
34.55
34.479
34.437
34.509
34.818
35.444
36.346
37.355
38.268
38.943
39.335
39.456
39.357
39.113
38.799
38.459
38.112
37.773
37.45
37.149
36.892
36.698
36.595
36.61
36.737
36.944
37.17
37.357
37.46
37.471
37.412
37.293
37.128
36.937
36.735
36.537
36.344
36.161
35.982
35.809
35.638
35.486
35.352
35.235
35.125
35.034
34.96
34.897
34.845
34.809
34.799
34.884
35.183
35.802
36.723
37.795
38.802
39.587
40.072
40.263
40.236
40.048
39.748
39.399
39.031
38.668
38.306
37.955
37.65
37.424
37.301
37.294
37.405
37.604
37.839
38.048
38.185
38.236
38.184
38.051
37.856
37.621
37.376
37.143
36.918
36.681
36.446
36.224
36.021
35.838
35.673
35.539
35.426
35.325
35.247
35.187
35.14
35.094
35.039
34.993
35.019
35.247
35.798
36.683
37.77
38.862
39.798
40.47
40.84
40.943
40.834
40.575
40.222
39.819
39.391
38.948
38.502
38.11
37.804
37.609
37.547
37.614
37.788
38.022
38.259
38.432
38.513
38.488
38.352
38.155
37.924
37.67
37.394
37.111
36.829
36.551
36.298
36.067
35.867
35.684
35.524
35.389
35.28
35.18
35.089
35.017
34.967
34.919
34.86
34.8
34.789
34.93
35.362
36.157
37.256
38.485
39.634
40.541
41.124
41.376
41.357
41.146
40.802
40.364
39.876
39.367
38.868
38.416
38.018
37.709
37.557
37.578
37.739
37.978
38.239
38.451
38.566
38.569
38.465
38.301
38.099
37.841
37.537
37.209
36.895
36.605
36.343
36.09
35.852
35.641
35.464
35.303
35.143
34.995
34.882
34.804
34.746
34.692
34.639
34.589
34.543
34.539
34.7
35.164
36.001
37.149
38.45
39.693
40.685
41.318
41.588
41.552
41.277
40.845
40.328
39.78
39.232
38.694
38.175
37.713
37.375
37.212
37.245
37.428
37.68
37.933
38.144
38.288
38.337
38.275
38.108
37.854
37.562
37.256
36.936
36.612
36.302
36.012
35.733
35.49
35.278
35.087
34.906
34.75
34.625
34.536
34.478
34.439
34.397
34.347
34.342
34.521
35.035
35.956
37.181
38.523
39.775
40.756
41.375
41.631
41.564
41.244
40.776
40.218
39.606
38.993
38.4
37.84
37.361
37.022
36.867
36.898
37.09
37.373
37.671
37.932
38.098
38.13
38.037
37.848
37.599
37.309
37.004
36.701
36.405
36.11
35.815
35.532
35.28
35.064
34.872
34.704
34.571
34.475
34.393
34.324
34.342
34.598
35.244
36.315
37.682
39.119
40.401
41.377
41.982
42.198
42.07
41.705
41.189
40.578
39.924
39.256
38.614
38.037
37.568
37.257
37.127
37.175
37.371
37.648
37.926
38.131
38.231
38.225
38.108
37.896
37.607
37.27
36.931
36.603
36.284
35.967
35.66
35.377
35.123
34.908
34.726
34.572
34.444
34.344
34.254
34.182
34.227
34.576
35.37
36.619
38.165
39.757
41.153
42.191
42.784
42.929
42.702
42.227
41.628
40.981
40.33
39.688
39.061
38.484
38.022
37.725
37.621
37.686
37.882
38.143
38.387
38.566
38.639
38.59
38.435
38.179
37.856
37.495
37.117
36.744
36.385
36.044
35.724
35.429
35.164
34.95
34.785
34.653
34.522
34.397
34.284
34.182
34.136
34.273
34.759
35.696
37.041
38.622
40.183
41.483
42.377
42.819
42.835
42.514
41.968
41.3
40.594
39.893
39.219
38.597
38.071
37.697
37.494
37.449
37.545
37.748
38.004
38.232
38.374
38.389
38.27
38.04
37.718
37.338
36.937
36.538
36.155
35.802
35.484
35.184
34.901
34.64
34.421
34.267
34.182
34.115
34.034
33.933
33.845
33.786
33.792
33.953
34.437
35.356
36.694
38.274
39.843
41.182
42.115
42.544
42.503
42.126
41.541
40.832
40.097
39.392
38.71
38.07
37.526
37.136
36.956
36.977
37.134
37.359
37.603
37.819
37.945
37.949
37.829
37.579
37.221
36.796
36.36
35.955
35.586
35.247
34.925
34.627
34.368
34.14
33.924
33.734
33.594
33.502
33.44
33.397
33.365
33.325
33.275
33.26
33.401
33.88
34.829
36.202
37.803
39.365
40.651
41.517
41.921
41.872
41.472
40.859
40.146
39.411
38.691
37.996
37.354
36.821
36.462
36.328
36.41
36.652
36.976
37.289
37.526
37.648
37.636
37.491
37.228
36.899
36.539
36.155
35.76
35.373
35.021
34.708
34.447
34.22
34.013
33.824
33.66
33.537
33.459
33.415
33.396
33.381
33.355
33.323
33.345
33.561
34.151
35.212
36.669
38.304
39.845
41.066
41.834
42.102
41.931
41.44
40.755
39.997
39.24
38.504
37.807
37.189
36.709
36.433
36.372
36.509
36.796
37.145
37.477
37.719
37.815
37.753
37.563
37.294
36.954
36.549
36.115
35.681
35.281
34.918
34.6
34.328
34.101
33.91
33.747
33.618
33.522
33.458
33.406
33.352
33.294
33.256
33.35
33.754
34.609
35.933
37.576
39.282
40.782
41.857
42.398
42.441
42.098
41.506
40.782
40.02
39.286
38.59
37.939
37.362
36.919
36.674
36.652
36.833
37.127
37.446
37.724
37.906
37.947
37.83
37.589
37.265
36.889
36.473
36.034
35.597
35.201
34.868
34.587
34.331
34.101
33.893
33.729
33.614
33.549
33.504
33.456
33.389
33.324
33.312
33.464
33.95
34.911
36.349
38.08
39.827
41.314
42.336
42.808
42.774
42.369
41.745
41.004
40.225
39.48
38.788
38.15
37.597
37.189
36.982
36.983
37.157
37.441
37.736
37.967
38.101
38.1
37.949
37.671
37.307
36.894
36.453
36.011
35.59
35.199
34.851
34.563
34.322
34.107
33.908
33.737
33.615
33.531
33.465
33.406
33.346
33.289
33.247
33.277
33.535
34.221
35.438
37.08
38.89
40.586
41.919
42.731
42.979
42.749
42.195
41.473
40.698
39.942
39.228
38.552
37.927
37.41
37.047
36.881
36.936
37.15
37.451
37.753
37.977
38.082
38.037
37.842
37.539
37.162
36.729
36.279
35.84
35.437
35.074
34.73
34.413
34.147
33.94
33.78
33.65
33.534
33.445
33.376
33.319
33.269
33.231
33.206
33.247
33.497
34.147
35.308
36.913
38.723
40.426
41.758
42.559
42.806
42.594
42.071
41.375
40.618
39.857
39.114
38.414
37.783
37.268
36.923
36.789
36.877
37.132
37.451
37.756
37.988
38.085
38.031
37.839
37.53
37.136
36.699
36.265
35.851
35.458
35.094
34.755
34.442
34.171
33.948
33.781
33.656
33.561
33.483
33.422
33.369
33.315
33.264
33.241
33.314
33.621
34.331
35.534
37.152
38.939
40.57
41.784
42.484
42.664
42.405
41.837
41.1
40.314
39.535
38.781
38.077
37.448
36.945
36.637
36.56
36.698
36.98
37.326
37.662
37.907
37.994
37.898
37.657
37.324
36.925
36.493
36.054
35.634
35.255
34.911
34.599
34.321
34.086
33.895
33.73
33.589
33.471
33.389
33.346
33.336
33.324
33.292
33.257
33.315
33.646
34.437
35.736
37.391
39.138
40.704
41.857
42.475
42.561
42.216
41.604
40.863
40.081
39.307
38.568
37.872
37.259
36.802
36.557
36.549
36.763
37.118
37.511
37.851
38.063
38.107
37.983
37.72
37.359
36.938
36.491
36.05
35.634
35.25
34.904
34.61
34.369
34.158
33.982
33.85
33.734
33.623
33.531
33.461
33.416
33.443
33.681
34.301
35.401
36.927
38.657
40.273
41.519
42.262
42.489
42.278
41.748
41.031
40.24
39.426
38.625
37.882
37.231
36.717
36.409
36.331
36.486
36.81
37.2
37.562
37.818
37.912
37.835
37.616
37.276
36.859
36.42
35.99
35.584
35.203
34.85
34.527
34.242
34.014
33.836
33.693
33.573
33.482
33.419
33.374
33.339
33.307
33.339
33.61
34.324
35.569
37.228
39.033
40.683
41.918
42.616
42.789
42.543
42.015
41.31
40.521
39.736
38.985
38.277
37.65
37.149
36.837
36.76
36.894
37.186
37.554
37.878
38.082
38.134
38.027
37.784
37.447
37.042
36.596
36.149
35.714
35.309
34.957
34.655
34.403
34.193
34.016
33.866
33.748
33.666
33.605
33.557
33.512
33.467
33.445
33.544
33.957
34.856
36.273
38.037
39.828
41.341
42.368
42.854
42.856
42.491
41.874
41.12
40.324
39.552
38.831
38.168
37.599
37.175
36.951
36.954
37.16
37.491
37.839
38.107
38.242
38.222
38.047
37.749
37.37
36.934
36.483
36.044
35.64
35.276
34.93
34.611
34.327
34.095
33.937
33.827
33.746
33.68
33.63
33.59
33.552
33.52
33.5
33.543
33.777
34.4
35.534
37.097
38.853
40.516
41.824
42.618
42.852
42.608
42.048
41.336
40.557
39.765
39.006
38.323
37.737
37.265
36.97
36.893
37.016
37.29
37.638
37.953
38.142
38.176
38.05
37.774
37.401
36.978
36.526
36.072
35.64
35.247
34.904
34.604
34.35
34.142
33.953
33.779
33.632
33.529
33.485
33.492
33.515
33.511
33.464
33.387
33.323
33.378
33.734
34.557
35.905
37.637
39.444
40.989
42.047
42.557
42.578
42.224
41.624
40.879
40.083
39.305
38.57
37.884
37.288
36.849
36.623
36.639
36.858
37.189
37.554
37.86
38.026
38.012
37.837
37.53
37.138
36.71
36.261
35.807
35.38
34.984
34.626
34.327
34.076
33.86
33.684
33.564
33.494
33.442
33.396
33.359
33.321
33.287
33.262
33.23
33.205
33.3
33.698
34.578
35.978
37.723
39.495
40.975
41.959
42.395
42.348
41.942
41.306
40.532
39.706
38.899
38.149
37.472
36.92
36.55
36.388
36.452
36.716
37.08
37.453
37.762
37.913
37.872
37.67
37.344
36.923
36.457
35.994
35.554
35.147
34.777
34.435
34.115
33.817
33.577
33.406
33.299
33.227
33.17
33.122
33.092
33.088
33.092
33.081
33.044
33.0
33.041
33.344
34.114
35.416
37.109
38.902
40.482
41.617
42.193
42.23
41.84
41.186
40.409
39.589
38.769
37.982
37.258
36.641
36.201
35.994
36.042
36.31
36.707
37.11
37.436
37.631
37.659
37.526
37.272
36.922
36.501
36.05
35.607
35.197
34.827
34.483
34.185
33.937
33.736
33.592
33.501
33.465
33.464
33.474
33.484
33.482
33.462
33.415
33.385
33.533
34.073
35.146
36.689
38.437
40.068
41.321
42.073
42.306
42.088
41.531
40.764
39.912
39.066
38.25
37.469
36.777
36.246
35.946
35.919
36.143
36.538
37.006
37.435
37.725
37.824
37.739
37.502
37.162
36.756
36.32
35.879
35.447
35.046
34.683
34.369
34.11
33.906
33.747
33.611
33.486
33.378
33.304
33.255
33.224
33.25
33.46
34.059
35.196
36.818
38.687
40.478
41.898
42.761
43.038
42.826
42.292
41.584
40.793
39.981
39.177
38.39
37.68
37.125
36.77
36.64
36.75
37.049
37.434
37.796
38.051
38.145
38.055
37.811
37.478
37.076
36.609
36.121
35.659
35.231
34.844
34.516
34.246
34.023
33.829
33.67
33.554
33.466
33.395
33.33
33.273
33.253
33.343
33.707
34.544
35.925
37.709
39.586
41.223
42.384
42.98
43.05
42.714
42.112
41.361
40.544
39.722
38.943
38.228
37.612
37.146
36.892
36.879
37.07
37.397
37.768
38.088
38.269
38.264
38.078
37.769
37.375
36.927
36.46
35.999
35.555
35.144
34.778
34.459
34.205
34.003
33.834
33.71
33.621
33.557
33.51
33.463
33.431
33.428
33.544
33.979
34.913
36.367
38.162
39.978
41.482
42.451
42.837
42.737
42.309
41.687
40.957
40.177
39.386
38.618
37.91
37.325
36.93
36.756
36.81
37.051
37.395
37.743
38.009
38.128
38.079
37.87
37.533
37.116
36.673
36.226
35.78
35.354
34.961
34.594
34.27
34.002
33.798
33.638
33.505
33.399
33.322
33.27
33.235
33.201
33.161
33.134
33.214
33.592
34.449
35.84
37.604
39.41
40.926
41.927
42.377
42.357
42.003
41.435
40.733
39.956
39.136
38.324
37.582
36.982
36.571
36.388
36.443
36.693
37.043
37.394
37.667
37.794
37.747
37.552
37.257
36.884
36.449
35.992
35.539
35.105
34.716
34.38
34.088
33.836
33.622
33.459
33.352
33.299
33.289
33.306
33.318
33.299
33.274
33.269
33.339
33.613
34.288
35.497
37.158
38.971
40.594
41.772
42.405
42.532
42.254
41.7
40.977
40.167
39.322
38.492
37.719
37.057
36.57
36.326
36.346
36.588
36.947
37.325
37.666
37.902
37.961
37.828
37.544
37.163
36.717
36.248
35.785
35.344
34.943
34.597
34.3
34.047
33.84
33.679
33.563
33.478
33.424
33.397
33.363
33.309
33.263
33.323
33.661
34.464
35.809
37.569
39.441
41.086
42.251
42.837
42.894
42.556
41.956
41.2
40.373
39.53
38.709
37.945
37.297
36.82
36.564
36.562
36.774
37.107
37.466
37.778
37.977
38.009
37.857
37.558
37.163
36.703
36.213
35.737
35.299
34.894
34.533
34.228
33.968
33.753
33.579
33.448
33.374
33.327
33.282
33.239
33.194
33.17
33.21
33.428
34.034
35.178
36.812
38.7
40.518
41.97
42.866
43.172
42.996
42.484
41.769
40.953
40.128
39.335
38.58
37.878
37.3
36.94
36.831
36.945
37.238
37.617
37.962
38.195
38.272
38.176
37.928
37.565
37.133
36.654
36.166
35.71
35.301
34.94
34.627
34.367
34.151
33.973
33.841
33.744
33.68
33.636
33.591
33.548
33.498
33.45
33.47
33.694
34.335
35.527
37.186
39.035
40.734
42.023
42.778
43.002
42.791
42.269
41.552
40.726
39.877
39.072
38.342
37.709
37.211
36.909
36.852
37.013
37.306
37.633
37.896
38.041
38.022
37.836
37.528
37.14
36.705
36.25
35.809
35.383
34.978
34.631
34.337
34.088
33.888
33.729
33.597
33.491
33.418
33.382
33.351
33.296
33.226
33.166
33.168
33.363
33.927
34.98
36.464
38.128
39.66
40.819
41.474
41.632
41.396
40.895
40.246
39.525
38.79
38.078
37.413
36.833
36.383
36.138
36.14
36.339
36.627
36.924
37.16
37.272
37.231
37.055
36.779
36.427
36.021
35.603
35.207
34.844
34.51
34.224
33.979
33.766
33.587
33.434
33.317
33.237
33.17
33.114
33.066
33.004
32.942
32.958
33.182
33.769
34.791
36.159
37.647
38.982
39.95
40.451
40.508
40.214
39.7
39.099
38.491
37.894
37.301
36.73
36.235
35.876
35.706
35.752
35.972
36.271
36.552
36.74
36.808
36.745
36.571
36.325
36.021
35.666
35.29
34.924
34.572
34.257
34.008
33.804
33.633
33.493
33.373
33.279
33.205
33.144
33.096
33.062
33.014
32.964
32.959
33.089
33.532
34.417
35.679
37.108
38.443
39.466
40.062
40.216
40.0
39.541
38.975
38.406
37.882
37.409
36.953
36.514
36.147
35.908
35.834
35.939
36.179
36.471
36.716
36.849
36.851
36.728
36.51
36.238
35.927
35.586
35.243
34.915
34.61
34.347
34.125
33.932
33.772
33.648
33.547
33.471
33.427
33.387
33.328
33.265
33.209
33.18
33.233
33.499
34.149
35.224
36.591
37.969
39.091
39.804
40.097
40.062
39.803
39.382
38.84
38.255
37.719
37.254
36.838
36.463
36.167
36.028
36.099
36.331
36.602
36.843
37.026
37.119
37.069
36.868
36.576
36.253
35.929
35.61
35.317
35.055
34.803
34.563
34.352
34.168
34.011
33.887
33.797
33.741
33.714
33.689
33.639
33.565
33.481
33.428
33.484
33.788
34.483
35.589
36.947
38.28
39.327
39.967
40.21
40.12
39.779
39.288
38.735
38.179
37.657
37.177
36.737
36.363
36.121
36.064
36.178
36.408
36.685
36.939
37.123
37.187
37.103
36.883
36.597
36.309
36.013
35.695
35.38
35.097
34.841
34.614
34.424
34.257
34.1
33.974
33.893
33.837
33.794
33.754
33.71
33.659
33.622
33.646
33.837
34.343
35.253
36.497
37.884
39.169
40.141
40.707
40.869
40.716
40.338
39.835
39.286
38.745
38.234
37.75
37.309
36.954
36.743
36.718
36.857
37.099
37.374
37.621
37.773
37.772
37.615
37.348
37.044
36.721
36.383
36.045
35.733
35.461
35.211
34.964
34.747
34.573
34.418
34.303
34.234
34.177
34.119
34.074
34.035
33.992
33.962
33.957
34.05
34.398
35.149
36.314
37.709
39.062
40.136
40.816
41.085
40.994
40.635
40.111
39.522
38.94
38.382
37.844
37.36
36.97
36.717
36.637
36.73
36.967
37.268
37.542
37.716
37.761
37.675
37.477
37.192
36.857
36.504
36.145
35.782
35.434
35.125
34.87
34.659
34.47
34.313
34.185
34.067
33.965
33.898
33.856
33.827
33.799
33.757
33.701
33.655
33.726
34.069
34.811
35.952
37.36
38.793
40.004
40.815
41.155
41.073
40.684
40.11
39.453
38.791
38.161
37.582
37.068
36.647
36.367
36.294
36.432
36.72
37.048
37.337
37.549
37.65
37.615
37.445
37.16
36.803
36.428
36.064
35.718
35.388
35.077
34.798
34.557
34.342
34.159
34.018
33.924
33.865
33.815
33.756
33.703
33.661
33.622
33.615
33.747
34.183
35.055
36.323
37.798
39.23
40.382
41.101
41.349
41.189
40.741
40.124
39.424
38.696
37.982
37.319
36.75
36.336
36.121
36.103
36.271
36.579
36.955
37.291
37.506
37.574
37.506
37.332
37.076
36.744
36.347
35.926
35.535
35.205
34.917
34.642
34.393
34.192
34.013
33.855
33.728
33.622
33.533
33.458
33.401
33.393
33.53
33.977
34.865
36.183
37.748
39.269
40.485
41.242
41.522
41.384
40.929
40.28
39.537
38.763
37.99
37.26
36.647
36.216
35.991
35.987
36.192
36.558
36.975
37.336
37.575
37.675
37.638
37.467
37.176
36.796
36.378
35.968
35.602
35.276
34.962
34.68
34.454
34.273
34.118
33.991
33.902
33.834
33.752
33.708
33.816
34.206
34.999
36.233
37.784
39.388
40.764
41.7
42.115
42.041
41.586
40.893
40.094
39.272
38.465
37.7
37.04
36.547
36.278
36.258
36.466
36.836
37.278
37.688
37.974
38.067
37.964
37.713
37.363
36.958
36.552
36.162
35.79
35.438
35.119
34.846
34.615
34.426
34.256
34.101
33.968
33.866
33.842
34.029
34.616
35.714
37.263
39.001
40.608
41.84
42.56
42.749
42.482
41.893
41.141
40.338
39.55
38.804
38.126
37.555
37.139
36.926
36.937
37.15
37.503
37.897
38.211
38.359
38.309
38.08
37.719
37.309
36.895
36.481
36.069
35.672
35.313
35.012
34.765
34.548
34.345
34.171
34.04
33.939
33.902
34.056
34.571
35.569
37.03
38.775
40.494
41.866
42.689
42.909
42.631
42.04
41.311
40.556
39.832
39.134
38.461
37.843
37.351
37.052
36.995
37.142
37.412
37.71
37.953
38.064
38.016
37.82
37.504
37.096
36.635
36.174
35.754
35.376
35.027
34.704
34.436
34.23
34.064
33.917
33.777
33.663
33.579
33.531
33.609
33.994
34.851
36.192
37.833
39.491
40.873
41.773
42.116
41.972
41.487
40.815
40.089
39.395
38.748
38.137
37.563
37.072
36.735
36.607
36.7
36.959
37.275
37.531
37.646
37.598
37.402
37.098
36.732
36.326
35.892
35.465
35.085
34.753
34.447
34.166
33.926
33.735
33.597
33.51
33.453
33.399
33.343
33.291
33.235
33.18
33.182
33.367
33.904
34.904
36.339
38.008
39.609
40.849
41.551
41.701
41.413
40.855
40.197
39.543
38.919
38.32
37.747
37.22
36.816
36.612
36.637
36.837
37.109
37.356
37.514
37.542
37.438
37.22
36.906
36.515
36.073
35.631
35.227
34.875
34.551
34.245
33.986
33.79
33.639
33.511
33.41
33.347
33.316
33.297
33.275
33.255
33.225
33.173
33.095
33.001
32.931
33.007
33.426
34.332
35.708
37.371
39.046
40.428
41.294
41.582
41.379
40.857
40.196
39.527
38.907
38.341
37.81
37.328
36.947
36.729
36.705
36.854
37.106
37.376
37.595
37.715
37.699
37.533
37.219
36.789
36.318
35.876
35.508
35.197
34.897
34.599
34.331
34.13
33.999
33.908
33.828
33.774
33.749
33.72
33.67
33.61
33.542
33.458
33.362
33.316
33.441
33.892
34.788
36.102
37.661
39.179
40.37
41.066
41.231
40.96
40.419
39.769
39.11
38.461
37.825
37.22
36.693
36.304
36.12
36.162
36.39
36.718
37.04
37.271
37.342
37.228
36.948
36.555
36.121
35.699
35.303
34.927
34.569
34.252
33.988
33.764
33.575
33.427
33.317
33.239
33.17
33.109
33.075
33.067
33.049
33.005
32.949
32.899
32.921
33.165
33.808
34.922
36.399
37.986
39.387
40.376
40.861
40.878
40.542
40.009
39.41
38.835
38.31
37.82
37.35
36.928
36.607
36.427
36.417
36.565
36.806
37.038
37.186
37.201
37.083
36.844
36.516
36.13
35.711
35.293
34.909
34.586
34.306
34.061
33.835
33.642
33.49
33.378
33.298
33.244
33.217
33.209
33.19
33.153
33.103
33.027
32.929
32.847
32.882
33.199
33.934
35.105
36.567
38.058
39.306
40.125
40.467
40.392
40.011
39.463
38.886
38.353
37.869
37.408
36.962
36.568
36.294
36.194
36.265
36.447
36.649
36.8
36.857
36.811
36.654
36.397
36.072
35.721
35.35
34.971
34.608
34.283
33.999
33.745
33.526
33.344
33.208
33.108
33.031
32.972
32.932
32.897
32.853
32.782
32.692
32.59
32.483
32.39
32.336
32.407
32.763
33.522
34.66
35.988
37.25
38.224
38.781
38.91
38.704
38.306
37.837
37.377
36.954
36.56
36.177
35.807
35.491
35.294
35.261
35.387
35.612
35.843
36.001
36.04
35.961
35.8
35.588
35.325
35.011
34.669
34.339
34.064
33.841
33.625
33.409
33.225
33.095
33.006
32.933
32.866
32.816
32.794
32.781
32.749
32.702
32.655
32.599
32.513
32.396
32.292
32.257
32.378
32.803
33.612
34.731
35.948
37.007
37.722
38.037
38.01
37.755
37.372
36.937
36.513
36.136
35.791
35.468
35.188
35.011
34.968
35.058
35.247
35.483
35.698
35.845
35.901
35.853
35.701
35.473
35.203
34.929
34.67
34.42
34.183
33.975
33.804
33.677
33.579
33.489
33.393
33.309
33.264
33.26
33.263
33.254
33.236
33.214
33.174
33.115
33.041
32.974
32.958
33.08
33.478
34.246
35.305
36.442
37.419
38.077
38.362
38.311
38.031
37.632
37.193
36.766
36.37
36.009
35.684
35.421
35.263
35.257
35.403
35.659
35.954
36.231
36.425
36.491
36.429
36.27
36.053
35.805
35.542
35.278
35.027
34.792
34.587
34.425
34.308
34.209
34.107
34.006
33.921
33.878
33.874
33.882
33.872
33.834
33.774
33.713
33.673
33.673
33.765
34.066
34.71
35.685
36.835
37.925
38.744
39.195
39.294
39.126
38.8
38.403
37.985
37.565
37.166
36.799
36.48
36.248
36.156
36.235
36.45
36.737
37.008
37.216
37.328
37.323
37.204
36.997
36.742
36.466
36.183
35.902
35.639
35.408
35.217
35.06
34.921
34.799
34.684
34.579
34.492
34.435
34.42
34.433
34.433
34.39
34.314
34.239
34.17
34.125
34.188
34.497
35.151
36.137
37.319
38.486
39.426
40.006
40.226
40.153
39.865
39.465
39.041
38.642
38.268
37.91
37.581
37.313
37.148
37.123
37.231
37.431
37.675
37.903
38.055
38.088
37.998
37.805
37.531
37.229
36.932
36.651
36.379
36.102
35.823
35.571
35.369
35.216
35.099
34.991
34.893
34.808
34.753
34.717
34.694
34.66
34.613
34.544
34.455
34.361
34.302
34.367
34.694
35.38
36.413
37.651
38.888
39.919
40.597
40.89
40.86
40.597
40.195
39.742
39.281
38.824
38.382
37.982
37.673
37.502
37.479
37.591
37.808
38.07
38.305
38.461
38.505
38.417
38.219
37.946
37.62
37.276
36.93
36.587
36.256
35.952
35.69
35.474
35.306
35.166
35.038
34.928
34.842
34.768
34.697
34.627
34.588
34.57
34.541
34.474
34.37
34.243
34.132
34.12
34.353
34.973
35.99
37.275
38.622
39.815
40.697
41.196
41.324
41.153
40.774
40.281
39.756
39.241
38.745
38.28
37.878
37.583
37.43
37.44
37.609
37.877
38.157
38.382
38.497
38.48
38.33
38.065
37.73
37.367
37.001
36.644
36.306
35.998
35.712
35.441
35.185
34.958
34.782
34.664
34.592
34.535
34.475
34.41
34.347
34.289
34.244
34.203
34.139
34.032
33.898
33.794
33.853
34.234
35.035
36.223
37.625
38.998
40.126
40.864
41.166
41.085
40.729
40.228
39.68
39.13
38.582
38.044
37.544
37.132
36.87
36.791
36.889
37.12
37.422
37.716
37.94
38.052
38.024
37.866
37.607
37.284
36.932
36.571
36.226
35.91
35.63
35.377
35.143
34.921
34.715
34.545
34.434
34.38
34.344
34.296
34.223
34.137
34.042
33.957
33.912
33.977
34.259
34.873
35.854
37.101
38.428
39.608
40.461
40.922
41.009
40.781
40.324
39.741
39.107
38.457
37.812
37.21
36.709
36.361
36.218
36.292
36.531
36.857
37.199
37.492
37.672
37.694
37.563
37.319
37.001
36.637
36.261
35.898
35.561
35.245
34.947
34.674
34.438
34.245
34.094
33.979
33.884
33.807
33.743
33.691
33.653
33.643
33.731
34.061
34.774
35.926
37.4
38.96
40.356
41.398
41.988
42.121
41.885
41.386
40.748
40.085
39.452
38.849
38.28
37.775
37.394
37.195
37.2
37.386
37.695
38.034
38.323
38.507
38.531
38.387
38.118
37.765
37.365
36.942
36.525
36.154
35.833
35.535
35.239
34.974
34.765
34.598
34.464
34.354
34.265
34.203
34.169
34.146
34.129
34.17
34.4
34.995
36.05
37.503
39.124
40.631
41.8
42.497
42.706
42.52
42.08
41.502
40.865
40.229
39.61
39.008
38.464
38.045
37.809
37.771
37.91
38.172
38.485
38.753
38.897
38.893
38.742
38.444
38.05
37.615
37.175
36.751
36.351
35.973
35.62
35.3
35.012
34.754
34.553
34.419
34.351
34.32
34.299
34.273
34.226
34.149
34.067
34.075
34.333
35.002
36.143
37.662
39.322
40.826
41.936
42.551
42.689
42.437
41.916
41.262
40.576
39.899
39.239
38.625
38.11
37.737
37.539
37.539
37.721
38.027
38.343
38.579
38.68
38.611
38.386
38.052
37.658
37.229
36.77
36.314
35.899
35.527
35.191
34.892
34.646
34.453
34.321
34.241
34.187
34.131
34.071
34.021
33.982
33.946
33.9
33.838
33.79
33.87
34.255
35.1
36.418
38.046
39.711
41.134
42.094
42.499
42.398
41.95
41.317
40.623
39.948
39.311
38.701
38.122
37.642
37.344
37.272
37.405
37.674
37.997
38.286
38.454
38.464
38.311
38.02
37.632
37.189
36.729
36.283
35.854
35.45
35.09
34.786
34.542
34.348
34.182
34.037
33.923
33.849
33.819
33.811
33.8
33.776
33.723
33.64
33.543
33.505
33.672
34.232
35.276
36.749
38.428
40.022
41.271
42.014
42.234
42.026
41.528
40.888
40.197
39.489
38.801
38.154
37.579
37.147
36.936
36.96
37.185
37.53
37.883
38.155
38.276
38.227
38.025
37.691
37.267
36.797
36.312
35.844
35.418
35.052
34.743
34.466
34.219
34.012
33.852
33.744
33.695
33.694
33.71
33.708
33.676
33.626
33.567
33.513
33.536
33.798
34.482
35.649
37.176
38.797
40.217
41.231
41.744
41.767
41.4
40.784
40.056
39.308
38.575
37.865
37.207
36.678
36.356
36.284
36.456
36.811
37.246
37.644
37.914
38.01
37.922
37.669
37.284
36.818
36.328
35.857
35.427
35.046
34.726
34.467
34.265
34.12
34.035
33.993
33.954
33.887
33.796
33.716
33.668
33.644
33.651
33.803
34.266
35.153
36.461
38.022
39.557
40.794
41.556
41.792
41.582
41.066
40.39
39.656
38.903
38.147
37.43
36.817
36.387
36.192
36.244
36.507
36.904
37.332
37.692
37.894
37.893
37.703
37.366
36.941
36.477
36.016
35.588
35.186
34.821
34.507
34.244
34.03
33.869
33.749
33.653
33.569
33.483
33.405
33.363
33.401
33.646
34.267
35.379
36.944
38.745
40.479
41.863
42.713
43.01
42.852
42.371
41.705
40.961
40.223
39.534
38.906
38.335
37.854
37.52
37.393
37.484
37.739
38.052
38.32
38.475
38.463
38.272
37.944
37.52
37.035
36.542
36.07
35.631
35.222
34.848
34.526
34.258
34.049
33.887
33.761
33.668
33.6
33.539
33.468
33.394
33.342
33.421
33.813
34.684
36.07
37.812
39.619
41.193
42.306
42.847
42.86
42.48
41.864
41.143
40.422
39.767
39.175
38.617
38.103
37.69
37.442
37.39
37.52
37.755
38.01
38.2
38.257
38.15
37.89
37.517
37.059
36.567
36.081
35.612
35.172
34.776
34.439
34.168
33.933
33.718
33.53
33.399
33.344
33.342
33.352
33.341
33.297
33.214
33.115
33.038
33.063
33.348
34.091
35.384
37.086
38.902
40.51
41.658
42.24
42.29
41.943
41.369
40.697
40.004
39.338
38.713
38.136
37.632
37.255
37.046
37.031
37.199
37.472
37.761
37.962
38.009
37.895
37.635
37.262
36.817
36.339
35.86
35.407
35.0
34.637
34.321
34.056
33.846
33.686
33.575
33.492
33.419
33.355
33.3
33.273
33.266
33.251
33.211
33.151
33.084
33.043
33.118
33.479
34.313
35.662
37.367
39.144
40.671
41.707
42.146
42.057
41.614
40.99
40.306
39.638
39.006
38.393
37.803
37.288
36.934
36.815
36.932
37.199
37.509
37.785
37.968
38.009
37.899
37.648
37.28
36.84
36.372
35.898
35.45
35.052
34.716
34.431
34.189
33.985
33.813
33.676
33.569
33.49
33.451
33.454
33.488
33.527
33.533
33.487
33.398
33.291
33.206
33.234
33.544
34.312
35.604
37.274
39.028
40.563
41.645
42.151
42.116
41.692
41.063
40.358
39.665
39.013
38.381
37.766
37.234
36.884
36.774
36.885
37.159
37.509
37.831
38.039
38.085
37.968
37.716
37.359
36.93
36.468
36.006
35.57
35.182
34.835
34.525
34.262
34.046
33.873
33.733
33.624
33.561
33.544
33.548
33.548
33.532
33.495
33.451
33.405
33.365
33.408
33.711
34.476
35.763
37.411
39.117
40.567
41.532
41.942
41.875
41.473
40.876
40.176
39.432
38.681
37.951
37.279
36.745
36.441
36.395
36.574
36.907
37.305
37.678
37.942
38.036
37.94
37.688
37.326
36.89
36.425
35.968
35.535
35.135
34.772
34.463
34.218
34.016
33.846
33.714
33.629
33.601
33.611
33.626
33.623
33.605
33.581
33.551
33.568
33.758
34.316
35.362
36.831
38.492
40.048
41.233
41.905
42.063
41.801
41.248
40.529
39.746
38.974
38.236
37.545
36.961
36.573
36.442
36.584
36.943
37.402
37.833
38.152
38.312
38.293
38.096
37.752
37.326
36.877
36.434
36.004
35.599
35.242
34.939
34.682
34.459
34.274
34.132
34.033
33.974
33.943
33.922
33.91
33.915
34.011
34.368
35.145
36.379
37.954
39.612
41.063
42.101
42.628
42.654
42.273
41.63
40.877
40.123
39.396
38.695
38.033
37.471
37.1
36.983
37.129
37.461
37.854
38.199
38.422
38.468
38.328
38.053
37.679
37.218
36.717
36.24
35.816
35.441
35.096
34.791
34.531
34.312
34.148
34.033
33.955
33.9
33.846
33.789
33.735
33.692
33.699
33.861
34.37
35.368
36.798
38.43
39.969
41.178
41.926
42.174
41.982
41.464
40.779
40.07
39.416
38.816
38.243
37.695
37.239
36.96
36.902
37.043
37.311
37.609
37.831
37.92
37.862
37.656
37.328
36.927
36.488
36.032
35.59
35.187
34.828
34.502
34.218
33.996
33.833
33.715
33.635
33.579
33.526
33.463
33.394
33.337
33.291
33.25
33.244
33.395
33.889
34.85
36.211
37.743
39.16
40.222
40.803
40.911
40.66
40.192
39.626
39.036
38.463
37.904
37.352
36.851
36.483
36.301
36.311
36.482
36.743
37.016
37.227
37.321
37.267
37.084
36.796
36.421
35.998
35.579
35.187
34.832
34.521
34.249
34.018
33.82
33.653
33.528
33.436
33.375
33.338
33.311
33.277
33.227
33.17
33.103
33.052
33.096
33.382
34.064
35.168
36.552
37.973
39.169
39.96
40.288
40.213
39.864
39.364
38.807
38.243
37.688
37.159
36.678
36.287
36.041
35.976
36.081
36.32
36.62
36.887
37.044
37.057
36.933
36.7
36.385
36.019
35.636
35.266
34.93
34.632
34.364
34.123
33.918
33.754
33.63
33.54
33.479
33.445
33.415
33.38
33.349
33.318
33.274
33.217
33.193
33.308
33.703
34.5
35.67
37.03
38.331
39.342
39.944
40.108
39.907
39.475
38.948
38.398
37.859
37.347
36.869
36.456
36.159
36.043
36.139
36.403
36.749
37.074
37.3
37.391
37.339
37.142
36.834
36.473
36.1
35.734
35.387
35.078
34.82
34.607
34.428
34.286
34.193
34.139
34.102
34.064
34.015
33.966
33.922
33.903
33.972
34.24
34.836
35.787
36.97
38.157
39.139
39.775
40.012
39.881
39.484
38.951
38.391
37.84
37.302
36.791
36.338
36.015
35.884
35.942
36.15
36.449
36.748
36.96
37.041
36.981
36.79
36.501
36.16
35.814
35.471
35.134
34.832
34.586
34.382
34.202
34.037
33.9
33.801
33.719
33.644
33.568
33.5
33.485
33.598
33.969
34.714
35.808
37.094
38.343
39.335
39.936
40.137
40.005
39.644
39.163
38.646
38.152
37.699
37.267
36.859
36.517
36.302
36.258
36.377
36.596
36.826
36.999
37.072
37.028
36.865
36.611
36.299
35.968
35.646
35.329
35.011
34.709
34.449
34.249
34.085
33.951
33.847
33.759
33.669
33.577
33.502
33.442
33.416
33.505
33.851
34.581
35.678
36.955
38.18
39.137
39.706
39.864
39.691
39.317
38.875
38.428
38.001
37.599
37.213
36.842
36.523
36.312
36.247
36.322
36.49
36.691
36.861
36.939
36.896
36.75
36.526
36.247
35.921
35.569
35.224
34.908
34.63
34.386
34.182
34.014
33.865
33.74
33.653
33.599
33.55
33.481
33.417
33.365
33.311
33.29
33.403
33.784
34.525
35.583
36.787
37.912
38.769
39.263
39.389
39.2
38.815
38.357
37.919
37.518
37.142
36.796
36.482
36.224
36.069
36.044
36.13
36.298
36.499
36.649
36.686
36.608
36.434
36.199
35.923
35.614
35.277
34.944
34.655
34.423
34.224
34.034
33.853
33.705
33.604
33.539
33.489
33.445
33.4
33.355
33.311
33.252
33.174
33.106
33.088
33.215
33.633
34.424
35.506
36.686
37.731
38.461
38.81
38.832
38.613
38.252
37.828
37.392
36.971
36.585
36.224
35.914
35.703
35.629
35.7
35.893
36.134
36.337
36.455
36.461
36.347
36.143
35.895
35.63
35.35
35.068
34.791
34.535
34.299
34.088
33.906
33.756
33.644
33.563
33.499
33.45
33.412
33.381
33.341
33.285
33.221
33.156
33.12
33.204
33.538
34.206
35.178
36.314
37.391
38.198
38.636
38.73
38.561
38.242
37.853
37.445
37.036
36.614
36.196
35.833
35.583
35.496
35.597
35.851
36.177
36.482
36.707
36.8
36.74
36.558
36.296
35.99
35.669
35.37
35.108
34.877
34.679
34.51
34.356
34.214
34.091
33.984
33.894
33.823
33.766
33.714
33.66
33.624
33.702
34.02
34.651
35.585
36.704
37.811
38.722
39.319
39.556
39.478
39.188
38.787
38.347
37.907
37.476
37.053
36.659
36.358
36.207
36.224
36.402
36.691
36.998
37.241
37.371
37.376
37.272
37.069
36.776
36.43
36.069
35.728
35.434
35.195
34.993
34.811
34.645
34.499
34.381
34.292
34.216
34.145
34.074
34.01
33.956
33.906
33.921
34.134
34.68
35.618
36.867
38.224
39.434
40.301
40.765
40.878
40.723
40.378
39.941
39.487
39.046
38.613
38.184
37.8
37.524
37.403
37.46
37.665
37.931
38.165
38.314
38.365
38.318
38.162
37.898
37.549
37.154
36.765
36.398
36.073
35.787
35.53
35.304
35.121
34.975
34.855
34.762
34.699
34.652
34.603
34.546
34.477
34.398
34.338
34.392
34.713
35.429
36.553
37.934
39.316
40.45
41.187
41.519
41.506
41.227
40.805
40.333
39.844
39.336
38.817
38.337
37.965
37.742
37.661
37.711
37.877
38.122
38.374
38.547
38.573
38.436
38.164
37.807
37.43
37.061
36.698
36.33
35.963
35.626
35.341
35.111
34.919
34.77
34.654
34.56
34.478
34.399
34.317
34.229
34.141
34.053
33.981
33.994
34.223
34.795
35.761
37.051
38.456
39.735
40.692
41.221
41.329
41.093
40.63
40.056
39.454
38.861
38.279
37.738
37.282
36.979
36.873
36.95
37.159
37.436
37.703
37.903
37.992
37.923
37.692
37.352
36.978
36.609
36.22
35.811
35.415
35.071
34.779
34.521
34.305
34.141
34.021
33.936
33.888
33.85
33.803
33.76
33.728
33.685
33.616
33.538
33.521
33.706
34.237
35.176
36.459
37.9
39.238
40.242
40.795
40.901
40.655
40.17
39.562
38.921
38.28
37.646
37.046
36.553
36.234
36.129
36.225
36.478
36.818
37.169
37.452
37.612
37.614
37.44
37.122
36.734
36.328
35.928
35.547
35.202
34.899
34.624
34.367
34.144
33.959
33.809
33.696
33.619
33.56
33.512
33.471
33.43
33.422
33.543
33.939
34.734
35.924
37.359
38.798
40.024
40.894
41.334
41.337
40.997
40.445
39.799
39.127
38.467
37.833
37.244
36.742
36.393
36.258
36.356
36.651
37.036
37.384
37.603
37.667
37.586
37.394
37.101
36.715
36.285
35.851
35.442
35.083
34.762
34.486
34.255
34.047
33.856
33.714
33.607
33.525
33.47
33.432
33.388
33.331
33.293
33.35
33.637
34.311
35.43
36.893
38.498
39.983
41.113
41.761
41.92
41.666
41.134
40.475
39.784
39.095
38.432
37.829
37.318
36.932
36.718
36.69
36.845
37.143
37.499
37.805
37.963
37.942
37.761
37.471
37.106
36.702
36.273
35.835
35.417
35.046
34.731
34.466
34.239
34.044
33.874
33.733
33.623
33.539
33.473
33.413
33.362
33.329
33.35
33.533
34.022
34.939
36.276
37.866
39.461
40.794
41.664
42.011
41.891
41.424
40.758
40.026
39.303
38.608
37.942
37.324
36.814
36.499
36.422
36.562
36.844
37.189
37.525
37.781
37.872
37.77
37.514
37.169
36.783
36.357
35.903
35.457
35.054
34.718
34.445
34.215
34.018
33.853
33.715
33.603
33.518
33.452
33.396
33.344
33.311
33.364
33.63
34.27
35.366
36.832
38.447
39.939
41.079
41.738
41.882
41.594
41.026
40.313
39.546
38.779
38.039
37.357
36.784
36.39
36.24
36.356
36.691
37.144
37.594
37.958
38.16
38.161
37.972
37.636
37.221
36.775
36.329
35.894
35.482
35.125
34.829
34.575
34.365
34.199
34.063
33.941
33.828
33.734
33.675
33.715
34.005
34.712
35.881
37.408
39.042
40.502
41.582
42.168
42.244
41.906
41.284
40.518
39.723
38.937
38.173
37.459
36.879
36.53
36.449
36.609
36.938
37.343
37.732
38.028
38.163
38.102
37.877
37.544
37.147
36.717
36.263
35.821
35.429
35.09
34.807
34.574
34.382
34.223
34.092
33.98
33.876
33.794
33.763
33.85
34.192
34.962
36.236
37.903
39.708
41.327
42.502
43.106
43.165
42.816
42.226
41.522
40.797
40.091
39.394
38.728
38.178
37.821
37.677
37.723
37.925
38.234
38.553
38.775
38.831
38.708
38.435
38.044
37.573
37.083
36.624
36.196
35.788
35.406
35.06
34.741
34.452
34.218
34.043
33.918
33.823
33.736
33.644
33.568
33.588
33.835
34.458
35.549
37.043
38.708
40.226
41.345
41.941
42.015
41.662
41.057
40.36
39.673
39.03
38.41
37.809
37.27
36.868
36.661
36.665
36.848
37.131
37.427
37.64
37.694
37.56
37.28
36.915
36.491
36.047
35.607
35.19
34.808
34.473
34.193
33.965
33.78
33.638
33.525
33.428
33.341
33.262
33.196
33.135
33.094
33.156
33.476
34.198
35.336
36.75
38.208
39.466
40.343
40.737
40.676
40.301
39.757
39.136
38.515
37.917
37.342
36.811
36.388
36.146
36.124
36.302
36.6
36.913
37.156
37.276
37.243
37.06
36.755
36.38
35.979
35.582
35.202
34.862
34.569
34.302
34.062
33.857
33.687
33.563
33.477
33.407
33.333
33.268
33.24
33.263
33.41
33.834
34.651
35.834
37.218
38.564
39.647
40.316
40.537
40.382
39.965
39.413
38.833
38.268
37.709
37.159
36.679
36.354
36.233
36.293
36.483
36.737
36.999
37.211
37.309
37.247
37.028
36.717
36.374
36.009
35.608
35.207
34.856
34.59
34.389
34.227
34.077
33.937
33.808
33.693
33.604
33.552
33.525
33.503
33.488
33.517
33.704
34.208
35.127
36.419
37.874
39.219
40.246
40.829
40.971
40.77
40.358
39.864
39.368
38.89
38.413
37.937
37.5
37.169
36.99
36.987
37.143
37.39
37.63
37.78
37.804
37.702
37.493
37.193
36.831
36.45
36.081
35.738
35.407
35.088
34.797
34.561
34.399
34.299
34.226
34.148
34.067
34.011
33.976
33.952
33.918
33.864
33.807
33.839
34.115
34.804
35.934
37.357
38.816
40.053
40.902
41.302
41.292
41.001
40.55
40.038
39.541
39.062
38.58
38.116
37.714
37.428
37.295
37.332
37.514
37.749
37.951
38.06
38.036
37.883
37.623
37.287
36.912
36.523
36.131
35.755
35.424
35.142
34.896
34.663
34.454
34.301
34.218
34.182
34.168
34.153
34.118
34.057
33.989
33.925
33.874
33.893
34.113
34.685
35.685
37.032
38.516
39.861
40.846
41.365
41.446
41.195
40.751
40.229
39.707
39.199
38.688
38.186
37.761
37.475
37.345
37.368
37.525
37.768
37.993
38.107
38.086
37.94
37.673
37.309
36.903
36.507
36.134
35.764
35.409
35.098
34.853
34.659
34.478
34.299
34.146
34.039
33.972
33.947
33.945
33.936
33.89
33.804
33.709
33.65
33.719
34.053
34.784
35.928
37.342
38.792
40.04
40.916
41.331
41.322
41.007
40.501
39.907
39.317
38.742
38.167
37.623
37.172
36.886
36.774
36.828
37.027
37.309
37.575
37.734
37.743
37.603
37.331
36.967
36.557
36.138
35.723
35.318
34.947
34.64
34.401
34.224
34.082
33.944
33.808
33.691
33.6
33.545
33.534
33.564
33.695
34.081
34.857
36.031
37.454
38.862
40.004
40.744
41.025
40.892
40.464
39.856
39.167
38.47
37.791
37.142
36.568
36.148
35.953
36.007
36.294
36.706
37.115
37.431
37.607
37.62
37.454
37.144
36.749
36.323
35.907
35.516
35.169
34.86
34.583
34.327
34.098
33.89
33.705
33.562
33.494
33.559
33.854
34.505
35.574
37.0
38.563
39.98
41.034
41.589
41.615
41.242
40.638
39.916
39.159
38.394
37.607
36.856
36.255
35.923
35.888
36.075
36.405
36.795
37.151
37.379
37.437
37.346
37.133
36.825
36.434
35.987
35.552
35.166
34.825
34.512
34.225
33.981
33.782
33.605
33.44
33.308
33.255
33.352
33.751
34.618
36.001
37.732
39.513
41.031
42.061
42.509
42.427
41.97
41.289
40.516
39.739
38.983
38.251
37.586
37.049
36.701
36.591
36.72
37.027
37.378
37.671
37.856
37.894
37.762
37.483
37.116
36.695
36.227
35.741
35.285
34.904
34.592
34.309
34.036
33.802
33.623
33.488
33.376
33.296
33.282
33.432
33.93
34.928
36.41
38.143
39.805
41.111
41.888
42.11
41.875
41.333
40.645
39.927
39.214
38.499
37.798
37.17
36.699
36.434
36.387
36.531
36.797
37.101
37.344
37.46
37.441
37.281
36.999
36.622
36.184
35.723
35.266
34.846
34.485
34.18
33.914
33.684
33.479
33.29
33.14
33.037
32.978
32.937
32.911
32.985
33.361
34.224
35.588
37.246
38.883
40.234
41.1
41.419
41.267
40.777
40.103
39.381
38.668
37.974
37.315
36.722
36.245
35.947
35.875
36.028
36.334
36.685
36.98
37.147
37.156
36.999
36.706
36.332
35.912
35.475
35.044
34.643
34.286
33.973
33.692
33.449
33.262
33.134
33.054
32.998
32.946
32.896
32.84
32.788
32.782
32.92
33.361
34.244
35.55
37.085
38.559
39.706
40.367
40.516
40.255
39.72
39.048
38.352
37.669
36.995
36.341
35.788
35.43
35.298
35.376
35.628
35.996
36.362
36.609
36.687
36.62
36.441
36.159
35.8
35.413
35.031
34.663
34.318
34.01
33.74
33.535
33.384
33.255
33.141
33.029
32.921
32.835
32.784
32.766
32.814
33.042
33.607
34.597
35.94
37.4
38.695
39.617
40.07
40.072
39.74
39.212
38.6
37.972
37.346
36.729
36.153
35.668
35.349
35.258
35.397
35.694
36.043
36.354
36.563
36.639
36.58
36.4
36.127
35.792
35.422
35.049
34.713
34.43
34.174
33.922
33.684
33.492
33.357
33.265
33.191
33.121
33.056
33.008
32.973
32.982
33.13
33.566
34.398
35.598
37.022
38.422
39.561
40.305
40.6
40.496
40.108
39.545
38.908
38.291
37.706
37.146
36.631
36.221
35.983
35.951
36.117
36.423
36.772
37.073
37.255
37.274
37.138
36.886
36.557
36.194
35.833
35.486
35.146
34.823
34.531
34.286
34.097
33.94
33.806
33.701
33.633
33.598
33.556
33.49
33.423
33.39
33.454
33.737
34.364
35.385
36.727
38.183
39.507
40.504
41.052
41.147
40.883
40.384
39.78
39.156
38.54
37.941
37.384
36.899
36.557
36.437
36.529
36.768
37.079
37.391
37.624
37.737
37.712
37.541
37.245
36.866
36.465
36.071
35.686
35.339
35.042
34.778
34.53
34.302
34.121
33.998
33.919
33.861
33.802
33.747
33.719
33.712
33.705
33.704
33.801
34.177
34.993
36.249
37.761
39.251
40.482
41.291
41.626
41.535
41.138
40.558
39.891
39.206
38.545
37.908
37.334
36.903
36.666
36.651
36.853
37.201
37.58
37.9
38.086
38.099
37.954
37.688
37.345
36.95
36.542
36.149
35.766
35.409
35.096
34.827
34.581
34.361
34.198
34.103
34.061
34.036
34.006
33.981
33.965
33.94
33.886
33.808
33.767
33.9
34.384
35.316
36.647
38.174
39.632
40.794
41.519
41.763
41.584
41.102
40.46
39.758
39.051
38.348
37.667
37.079
36.678
36.519
36.606
36.892
37.283
37.692
38.018
38.182
38.181
38.037
37.765
37.395
36.975
36.547
36.136
35.758
35.426
35.133
34.86
34.614
34.418
34.273
34.151
34.036
33.942
33.896
33.888
33.884
33.871
33.893
34.112
34.709
35.749
37.16
38.73
40.187
41.305
41.934
42.067
41.791
41.237
40.544
39.803
39.052
38.323
37.648
37.07
36.664
36.482
36.53
36.791
37.181
37.587
37.919
38.111
38.123
37.981
37.716
37.362
36.95
36.514
36.076
35.665
35.301
34.975
34.686
34.442
34.248
34.1
33.986
33.892
33.818
33.761
33.708
33.658
33.623
33.638
33.801
34.304
35.296
36.725
38.373
39.978
41.278
42.105
42.398
42.226
41.726
41.036
40.267
39.481
38.72
37.996
37.342
36.834
36.528
36.444
36.586
36.904
37.302
37.676
37.942
38.04
37.963
37.739
37.399
36.981
36.522
36.048
35.583
35.141
34.74
34.388
34.09
33.861
33.684
33.542
33.426
33.343
33.289
33.254
33.226
33.194
33.16
33.159
33.307
33.783
34.709
36.066
37.668
39.243
40.537
41.378
41.699
41.549
41.052
40.36
39.576
38.763
37.967
37.209
36.51
35.954
35.643
35.611
35.819
36.201
36.661
37.089
37.396
37.519
37.453
37.232
36.894
36.464
35.994
35.541
35.113
34.706
34.343
34.036
33.78
33.555
33.364
33.237
33.173
33.137
33.093
33.062
33.141
33.476
34.215
35.403
36.925
38.549
39.995
41.062
41.661
41.806
41.54
40.963
40.213
39.396
38.556
37.711
36.916
36.27
35.88
35.803
36.016
36.453
37.006
37.53
37.91
38.083
38.032
37.805
37.475
37.083
36.667
36.269
35.907
35.579
35.296
35.084
34.934
34.8
34.667
34.567
34.546
34.711
35.226
36.22
37.667
39.385
41.079
42.458
43.355
43.743
43.653
43.18
42.464
41.63
40.772
39.926
39.107
38.382
37.854
37.592
37.612
37.877
38.289
38.7
38.999
39.13
39.08
38.875
38.55
38.136
37.679
37.215
36.763
36.347
35.973
35.627
35.312
35.045
34.846
34.744
34.839
35.313
36.308
37.801
39.595
41.369
42.815
43.728
44.04
43.829
43.24
42.452
41.603
40.764
39.94
39.139
38.419
37.855
37.528
37.492
37.707
38.063
38.436
38.718
38.827
38.75
38.499
38.121
37.652
37.138
36.629
36.153
35.706
35.292
34.942
34.661
34.411
34.178
33.977
33.872
33.961
34.4
35.334
36.741
38.413
40.068
41.396
42.191
42.422
42.178
41.591
40.81
39.97
39.143
38.351
37.6
36.94
36.466
36.249
36.292
36.536
36.892
37.242
37.469
37.521
37.406
37.153
36.806
36.409
35.987
35.562
35.157
34.787
34.456
34.165
33.919
33.718
33.559
33.419
33.271
33.124
33.049
33.154
33.599
34.467
35.718
37.163
38.523
39.553
40.121
40.23
39.961
39.428
38.766
38.054
37.319
36.596
35.938
35.412
35.116
35.1
35.33
35.714
36.143
36.497
36.701
36.737
36.615
36.362
36.035
35.689
35.331
34.975
34.649
34.364
34.112
33.896
33.71
33.565
33.449
33.356
33.298
33.261
33.23
33.205
33.214
33.344
33.749
34.546
35.699
37.024
38.291
39.296
39.897
40.071
39.896
39.488
38.943
38.32
37.67
37.035
36.481
36.071
35.865
35.901
36.179
36.607
37.053
37.403
37.577
37.584
37.474
37.263
36.97
36.639
36.297
35.948
35.616
35.304
35.012
34.771
34.585
34.422
34.252
34.095
33.981
33.904
33.836
33.766
33.697
33.615
33.52
33.494
33.689
34.225
35.11
36.211
37.308
38.172
38.675
38.79
38.588
38.175
37.627
37.003
36.362
35.731
35.146
34.668
34.365
34.304
34.493
34.87
35.32
35.72
35.991
36.115
36.105
35.973
35.746
35.457
35.144
34.856
34.595
34.339
34.082
33.835
33.632
33.469
33.346
33.252
33.178
33.136
33.111
33.084
33.063
33.051
33.032
33.011
33.086
33.41
34.085
35.08
36.239
37.337
38.173
38.647
38.743
38.519
38.076
37.506
36.893
36.271
35.666
35.118
34.676
34.378
34.279
34.415
34.751
35.206
35.684
36.077
36.313
36.39
36.319
36.132
35.889
35.617
35.322
35.023
34.738
34.481
34.259
34.069
33.9
33.759
33.647
33.555
33.468
33.392
33.343
33.312
33.288
33.278
33.31
33.456
33.854
34.611
35.682
36.874
37.948
38.721
39.115
39.154
38.912
38.472
37.911
37.288
36.648
36.029
35.482
35.057
34.807
34.77
34.944
35.28
35.71
36.146
36.493
36.694
36.742
36.673
36.524
36.299
36.021
35.734
35.449
35.183
34.962
34.765
34.564
34.364
34.182
34.03
33.902
33.808
33.745
33.685
33.642
33.631
33.664
33.813
34.216
34.966
36.012
37.197
38.313
39.181
39.684
39.799
39.583
39.141
38.582
37.962
37.301
36.635
36.014
35.502
35.162
35.041
35.159
35.483
35.926
36.378
36.752
37.001
37.105
37.079
36.968
36.787
36.532
36.245
35.946
35.651
35.385
35.141
34.925
34.751
34.599
34.447
34.306
34.199
34.123
34.043
33.965
33.933
34.012
34.325
35.025
36.117
37.42
38.691
39.717
40.38
40.649
40.563
40.203
39.661
39.006
38.294
37.574
36.876
36.264
35.81
35.569
35.556
35.761
36.126
36.577
37.014
37.341
37.534
37.594
37.53
37.361
37.106
36.799
36.463
36.137
35.824
35.528
35.255
35.003
34.782
34.61
34.481
34.377
34.288
34.2
34.117
34.079
34.166
34.525
35.286
36.418
37.744
39.041
40.094
40.753
40.976
40.821
40.388
39.785
39.082
38.322
37.566
36.864
36.259
35.803
35.554
35.562
35.818
36.233
36.706
37.128
37.437
37.613
37.632
37.515
37.299
37.028
36.723
36.394
36.075
35.773
35.471
35.196
34.963
34.755
34.573
34.427
34.307
34.209
34.126
34.058
34.048
34.202
34.68
35.569
36.787
38.131
39.349
40.245
40.734
40.824
40.58
40.089
39.443
38.705
37.927
37.158
36.457
35.89
35.511
35.363
35.459
35.751
36.164
36.611
36.991
37.258
37.395
37.389
37.262
37.053
36.787
36.476
36.133
35.802
35.503
35.221
34.965
34.735
34.532
34.367
34.237
34.114
34.003
33.916
33.887
34.03
34.512
35.4
36.616
37.953
39.162
40.056
40.551
40.665
40.449
39.977
39.323
38.572
37.785
37.005
36.276
35.672
35.268
35.126
35.247
35.572
36.008
36.463
36.859
37.136
37.271
37.273
37.168
36.977
36.722
36.431
36.105
35.764
35.443
35.164
34.92
34.707
34.524
34.359
34.21
34.073
33.949
33.89
33.999
34.409
35.231
36.412
37.774
39.081
40.119
40.758
40.976
40.825
40.394
39.773
39.023
38.208
37.375
36.603
35.993
35.59
35.438
35.537
35.838
36.268
36.724
37.139
37.453
37.628
37.663
37.571
37.378
37.1
36.765
36.419
36.084
35.768
35.478
35.203
34.946
34.731
34.552
34.393
34.267
34.185
34.184
34.402
34.986
35.978
37.279
38.668
39.894
40.766
41.208
41.23
40.906
40.344
39.641
38.849
38.013
37.195
36.48
35.934
35.639
35.639
35.891
36.3
36.765
37.212
37.576
37.799
37.88
37.823
37.65
37.366
37.021
36.67
36.32
35.985
35.666
35.356
35.083
34.854
34.659
34.507
34.396
34.319
34.338
34.597
35.23
36.285
37.647
39.084
40.332
41.205
41.606
41.557
41.166
40.558
39.825
39.018
38.185
37.389
36.711
36.221
35.986
36.024
36.304
36.741
37.238
37.702
38.048
38.22
38.213
38.06
37.815
37.509
37.159
36.79
36.425
36.074
35.757
35.478
35.225
34.999
34.81
34.652
34.525
34.452
34.518
34.87
35.632
36.803
38.218
39.617
40.747
41.463
41.734
41.591
41.116
40.424
39.614
38.758
37.915
37.147
36.531
36.131
36.011
36.164
36.511
36.969
37.445
37.854
38.127
38.218
38.14
37.925
37.619
37.246
36.848
36.458
36.097
35.764
35.461
35.201
34.979
34.784
34.621
34.486
34.382
34.352
34.472
34.867
35.647
36.823
38.244
39.65
40.793
41.522
41.781
41.598
41.068
40.33
39.496
38.629
37.782
37.005
36.375
35.979
35.863
36.012
36.369
36.85
37.345
37.749
37.986
38.034
37.914
37.669
37.331
36.939
36.534
36.128
35.736
35.384
35.074
34.81
34.595
34.417
34.275
34.166
34.076
34.006
33.994
34.125
34.535
35.336
36.515
37.925
39.317
40.433
41.098
41.263
41.001
40.429
39.669
38.817
37.947
37.112
36.365
35.784
35.439
35.364
35.556
35.951
36.452
36.94
37.309
37.506
37.544
37.429
37.167
36.792
36.374
35.959
35.56
35.188
34.859
34.567
34.313
34.112
33.944
33.8
33.694
33.616
33.558
33.53
33.562
33.742
34.231
35.119
36.338
37.71
38.975
39.899
40.361
40.365
39.994
39.363
38.599
37.796
36.983
36.209
35.551
35.072
34.831
34.85
35.103
35.509
35.973
36.407
36.728
36.873
36.834
36.641
36.345
35.995
35.624
35.254
34.883
34.526
34.214
33.953
33.73
33.545
33.404
33.305
33.237
33.181
33.129
33.112
33.152
33.305
33.7
34.445
35.525
36.782
37.99
38.926
39.449
39.544
39.277
38.761
38.102
37.376
36.633
35.928
35.3
34.805
34.512
34.468
34.662
35.028
35.487
35.944
36.288
36.466
36.488
36.365
36.14
35.844
35.52
35.182
34.83
34.501
34.205
33.941
33.727
33.557
33.405
33.292
33.223
33.168
33.13
33.122
33.129
33.2
33.445
33.988
34.896
36.091
37.357
38.463
39.231
39.595
39.566
39.224
38.662
37.979
37.257
36.554
35.897
35.313
34.882
34.679
34.729
35.0
35.415
35.878
36.284
36.567
36.703
36.689
36.546
36.307
36.005
35.665
35.309
34.965
34.663
34.388
34.14
33.934
33.766
33.627
33.524
33.455
33.418
33.405
33.399
33.397
33.472
33.746
34.344
35.3
36.513
37.775
38.849
39.583
39.907
39.841
39.465
38.889
38.211
37.495
36.786
36.13
35.563
35.141
34.946
34.998
35.259
35.652
36.105
36.536
36.85
36.997
36.977
36.831
36.598
36.299
35.956
35.592
35.249
34.93
34.65
34.418
34.215
34.03
33.879
33.763
33.665
33.591
33.539
33.504
33.505
33.602
33.904
34.548
35.568
36.827
38.095
39.153
39.864
40.18
40.123
39.753
39.15
38.417
37.647
36.908
36.246
35.687
35.282
35.087
35.132
35.41
35.836
36.31
36.732
37.03
37.165
37.143
37.006
36.781
36.478
36.119
35.746
35.389
35.07
34.784
34.531
34.316
34.125
33.967
33.861
33.779
33.709
33.654
33.607
33.608
33.751
34.171
34.964
36.096
37.406
38.666
39.681
40.312
40.516
40.322
39.815
39.132
38.384
37.622
36.88
36.214
35.681
35.328
35.197
35.307
35.628
36.075
36.536
36.927
37.191
37.298
37.26
37.097
36.83
36.499
36.124
35.742
35.386
35.074
34.805
34.562
34.339
34.149
33.998
33.893
33.821
33.751
33.683
33.65
33.749
34.123
34.879
36.007
37.356
38.697
39.782
40.455
40.655
40.447
39.957
39.293
38.546
37.782
37.041
36.353
35.767
35.365
35.193
35.271
35.562
35.987
36.449
36.848
37.109
37.215
37.185
37.031
36.778
36.452
36.092
35.735
35.393
35.073
34.787
34.526
34.284
34.081
33.931
33.819
33.728
33.654
33.607
33.629
33.841
34.383
35.304
36.532
37.879
39.115
40.031
40.528
40.59
40.27
39.659
38.888
38.084
37.314
36.604
35.966
35.46
35.19
35.183
35.394
35.763
36.219
36.675
37.051
37.271
37.305
37.179
36.948
36.647
36.304
35.948
35.597
35.269
34.966
34.686
34.443
34.234
34.065
33.936
33.84
33.772
33.724
33.736
33.922
34.426
35.331
36.586
38.005
39.342
40.367
40.943
41.053
40.757
40.178
39.448
38.658
37.869
37.11
36.415
35.854
35.517
35.441
35.618
35.995
36.483
36.971
37.369
37.612
37.678
37.589
37.385
37.095
36.74
36.365
36.0
35.66
35.329
35.026
34.776
34.57
34.41
34.27
34.145
34.042
33.962
33.951
34.095
34.52
35.329
36.516
37.938
39.32
40.402
41.041
41.202
40.945
40.394
39.683
38.898
38.105
37.334
36.624
36.041
35.683
35.596
35.763
36.112
36.567
37.051
37.466
37.736
37.819
37.731
37.526
37.253
36.915
36.532
36.146
35.791
35.468
35.17
34.9
34.672
34.488
34.339
34.221
34.133
34.083
34.113
34.332
34.902
35.897
37.228
38.676
39.984
40.95
41.456
41.511
41.193
40.581
39.786
38.915
38.043
37.237
36.552
36.051
35.793
35.805
36.065
36.513
37.045
37.533
37.885
38.058
38.062
37.915
37.65
37.304
36.911
36.508
36.119
35.762
35.43
35.135
34.894
34.707
34.558
34.412
34.288
34.204
34.194
34.357
34.833
35.734
37.016
38.489
39.886
40.97
41.611
41.768
41.489
40.886
40.078
39.196
38.329
37.521
36.802
36.246
35.929
35.885
36.102
36.507
37.008
37.502
37.881
38.077
38.082
37.94
37.693
37.362
36.961
36.525
36.077
35.658
35.298
35.002
34.752
34.542
34.382
34.254
34.146
34.068
34.05
34.188
34.615
35.446
36.656
38.085
39.479
40.59
41.258
41.418
41.11
40.456
39.596
38.666
37.752
36.88
36.083
35.434
35.022
34.892
35.038
35.393
35.875
36.382
36.798
37.055
37.137
37.053
36.831
36.53
36.178
35.805
35.435
35.087
34.774
34.509
34.281
34.089
33.934
33.819
33.74
33.681
33.642
33.65
33.799
34.229
35.065
36.304
37.775
39.218
40.374
41.08
41.3
41.094
40.56
39.818
38.963
38.072
37.213
36.452
35.868
35.537
35.496
35.718
36.144
36.672
37.189
37.586
37.812
37.868
37.774
37.545
37.211
36.808
36.39
35.993
35.627
35.282
34.98
34.726
34.513
34.346
34.229
34.165
34.124
34.092
34.097
34.221
34.638
35.498
36.812
38.403
40.002
41.345
42.236
42.596
42.457
41.926
41.152
40.287
39.425
38.595
37.817
37.166
36.737
36.574
36.686
37.028
37.507
38.018
38.44
38.691
38.742
38.599
38.296
37.874
37.399
36.912
36.446
36.009
35.61
35.257
34.963
34.725
34.537
34.399
34.314
34.278
34.25
34.22
34.232
34.393
34.887
35.83
37.195
38.81
40.395
41.661
42.423
42.635
42.37
41.781
41.016
40.198
39.4
38.646
37.964
37.42
37.08
36.973
37.097
37.407
37.803
38.181
38.473
38.629
38.619
38.442
38.115
37.668
37.151
36.64
36.172
35.753
35.378
35.057
34.795
34.594
34.449
34.337
34.255
34.204
34.173
34.153
34.124
34.097
34.144
34.4
35.039
36.146
37.625
39.222
40.631
41.621
42.089
42.068
41.676
41.044
40.308
39.571
38.901
38.314
37.785
37.334
37.043
36.976
37.142
37.474
37.877
38.235
38.449
38.487
38.351
38.072
37.701
37.277
36.818
36.349
35.899
35.513
35.192
34.931
34.719
34.56
34.448
34.372
34.323
34.29
34.276
34.287
34.303
34.283
34.217
34.143
34.113
34.239
34.695
35.6
36.907
38.423
39.856
40.957
41.609
41.803
41.604
41.126
40.486
39.787
39.113
38.499
37.946
37.486
37.166
37.044
37.144
37.421
37.783
38.114
38.327
38.388
38.29
38.07
37.759
37.384
36.963
36.528
36.092
35.676
35.308
35.006
34.768
34.565
34.407
34.298
34.239
34.212
34.21
34.228
34.242
34.222
34.165
34.101
34.048
34.036
34.165
34.588
35.438
36.705
38.198
39.629
40.748
41.409
41.587
41.354
40.836
40.171
39.47
38.804
38.198
37.65
37.19
36.886
36.793
36.925
37.228
37.614
37.973
38.215
38.298
38.206
37.97
37.636
37.242
36.803
36.342
35.895
35.495
35.157
34.885
34.659
34.469
34.328
34.252
34.216
34.192
34.174
34.175
34.18
34.165
34.123
34.051
33.961
33.872
33.856
34.053
34.617
35.626
36.996
38.504
39.866
40.858
41.371
41.423
41.102
40.526
39.817
39.062
38.322
37.648
37.077
36.655
36.439
36.465
36.708
37.076
37.487
37.847
38.081
38.149
38.032
37.753
37.366
36.931
36.479
36.022
35.588
35.216
34.911
34.647
34.415
34.224
34.089
34.003
33.948
33.916
33.918
33.956
34.007
34.029
34.014
33.962
33.875
33.768
33.718
33.887
34.436
35.431
36.788
38.301
39.688
40.693
41.185
41.187
40.798
40.151
39.387
38.583
37.786
37.051
36.44
36.019
35.837
35.914
36.215
36.631
37.051
37.402
37.64
37.723
37.645
37.42
37.076
36.645
36.169
35.696
35.26
34.886
34.584
34.341
34.144
33.989
33.88
33.796
33.743
33.727
33.735
33.753
33.769
33.775
33.766
33.73
33.662
33.567
33.495
33.539
33.845
34.558
35.717
37.185
38.698
39.981
40.837
41.179
41.05
40.569
39.875
39.075
38.24
37.419
36.676
36.079
35.704
35.597
35.744
36.096
36.557
37.042
37.466
37.733
37.805
37.685
37.407
37.006
36.528
36.042
35.576
35.127
34.716
34.359
34.069
33.839
33.66
33.52
33.434
33.409
33.416
33.438
33.472
33.509
33.529
33.52
33.484
33.441
33.447
33.614
34.104
35.013
36.312
37.818
39.267
40.405
41.06
41.188
40.875
40.27
39.518
38.704
37.864
37.031
36.279
35.702
35.376
35.341
35.587
36.039
36.57
37.076
37.485
37.737
37.808
37.705
37.433
37.027
36.543
36.036
35.554
35.139
34.796
34.491
34.211
33.975
33.786
33.658
33.585
33.545
33.526
33.529
33.533
33.531
33.527
33.544
33.658
34.02
34.778
35.943
37.401
38.921
40.229
41.132
41.544
41.451
40.949
40.192
39.333
38.467
37.636
36.854
36.16
35.642
35.396
35.465
35.821
36.371
36.981
37.51
37.849
37.98
37.936
37.754
37.44
37.018
36.539
36.056
35.602
35.187
34.822
34.527
34.301
34.124
33.987
33.872
33.779
33.72
33.692
33.666
33.641
33.656
33.8
34.227
35.069
36.335
37.888
39.46
40.769
41.623
41.95
41.797
41.283
40.551
39.703
38.821
37.959
37.153
36.472
36.003
35.809
35.901
36.247
36.754
37.303
37.79
38.133
38.292
38.265
38.06
37.701
37.234
36.722
36.233
35.793
35.394
35.033
34.725
34.49
34.303
34.158
34.062
34.01
33.982
33.969
33.981
34.07
34.386
35.092
36.251
37.758
39.363
40.78
41.778
42.266
42.252
41.823
41.11
40.255
39.362
38.493
37.68
36.964
36.441
36.212
36.313
36.677
37.193
37.744
38.218
38.536
38.663
38.593
38.346
37.973
37.523
37.044
36.583
36.153
35.754
35.393
35.077
34.84
34.677
34.563
34.478
34.406
34.348
34.328
34.38
34.599
35.111
36.03
37.363
38.943
40.493
41.729
42.461
42.657
42.404
41.834
41.064
40.209
39.354
38.533
37.776
37.177
36.855
36.856
37.14
37.599
38.116
38.594
38.941
39.098
39.045
38.795
38.4
37.93
37.438
36.957
36.503
36.088
35.724
35.416
35.172
34.986
34.855
34.766
34.701
34.632
34.58
34.586
34.723
35.114
35.9
37.108
38.598
40.122
41.411
42.254
42.561
42.377
41.836
41.09
40.253
39.409
38.6
37.867
37.275
36.898
36.785
36.955
37.377
37.932
38.467
38.827
38.936
38.826
38.561
38.179
37.702
37.166
36.63
36.158
35.764
35.44
35.181
34.971
34.805
34.682
34.608
34.591
34.623
34.678
34.741
34.847
35.088
35.621
36.547
37.829
39.294
40.666
41.669
42.163
42.171
41.808
41.206
40.489
39.75
39.037
38.369
37.791
37.39
37.246
37.371
37.707
38.144
38.569
38.883
39.026
38.974
38.736
38.361
37.909
37.436
36.974
36.537
36.121
35.732
35.408
35.174
35.011
34.886
34.778
34.689
34.604
34.512
34.429
34.361
34.306
34.283
34.382
34.744
35.473
36.564
37.857
39.098
40.037
40.517
40.522
40.157
39.567
38.882
38.185
37.523
36.912
36.382
36.005
35.842
35.924
36.227
36.653
37.079
37.393
37.521
37.462
37.245
36.914
36.507
36.063
35.631
35.245
34.913
34.631
34.401
34.217
34.077
33.968
33.887
33.829
33.787
33.757
33.74
33.722
33.685
33.617
33.521
33.445
33.509
33.853
34.55
35.557
36.711
37.784
38.575
38.993
39.037
38.765
38.293
37.74
37.187
36.666
36.184
35.778
35.514
35.446
35.591
35.915
36.323
36.699
36.96
37.059
36.995
36.801
36.507
36.156
35.777
35.395
35.046
34.76
34.531
34.327
34.141
33.99
33.876
33.802
33.771
33.79
33.827
33.836
33.818
33.785
33.742
33.68
33.583
33.452
33.355
33.411
33.754
34.475
35.532
36.75
37.889
38.727
39.153
39.184
38.91
38.449
37.894
37.303
36.721
36.187
35.743
35.449
35.331
35.397
35.641
36.005
36.389
36.69
36.826
36.767
36.557
36.256
35.892
35.508
35.145
34.82
34.518
34.247
34.027
33.868
33.753
33.676
33.637
33.621
33.606
33.593
33.575
33.558
33.545
33.529
33.475
33.372
33.254
33.17
33.174
33.362
33.86
34.717
35.837
37.003
37.98
38.615
38.853
38.732
38.348
37.829
37.269
36.699
36.144
35.646
35.259
35.054
35.069
35.283
35.618
35.986
36.303
36.5
36.552
36.457
36.232
35.917
35.56
35.201
34.866
34.541
34.237
33.989
33.8
33.666
33.563
33.477
33.398
33.338
33.305
33.308
33.328
33.333
33.309
33.248
33.155
33.056
32.968
32.936
33.08
33.545
34.384
35.507
36.722
37.799
38.559
38.924
38.915
38.604
38.103
37.536
36.971
36.424
35.918
35.497
35.231
35.173
35.333
35.678
36.113
36.518
36.812
36.957
36.953
36.815
36.563
36.232
35.873
35.531
35.221
34.93
34.656
34.411
34.192
34.016
33.911
33.877
33.892
33.914
33.926
33.929
33.931
33.926
33.896
33.844
33.778
33.747
33.86
34.257
35.031
36.136
37.399
38.598
39.528
40.061
40.18
39.978
39.57
39.052
38.497
37.958
37.457
37.013
36.668
36.464
36.419
36.549
36.806
37.083
37.292
37.39
37.36
37.22
36.985
36.675
36.325
35.964
35.616
35.295
34.994
34.717
34.483
34.307
34.189
34.105
34.03
33.961
33.908
33.88
33.856
33.822
33.764
33.673
33.569
33.502
33.587
33.968
34.717
35.789
37.013
38.155
39.015
39.512
39.641
39.461
39.082
38.62
38.158
37.736
37.344
36.963
36.618
36.381
36.303
36.374
36.549
36.759
36.934
37.032
37.021
36.878
36.626
36.295
35.919
35.541
35.178
34.837
34.532
34.272
34.046
33.848
33.69
33.576
33.487
33.413
33.36
33.328
33.291
33.221
33.126
33.029
32.929
32.83
32.761
32.823
33.158
33.844
34.832
35.95
36.968
37.693
38.033
38.019
37.761
37.373
36.949
36.566
36.243
35.955
35.664
35.38
35.161
35.083
35.163
35.36
35.6
35.806
35.916
35.901
35.761
35.527
35.242
34.931
34.618
34.335
34.096
33.901
33.726
33.563
33.41
33.274
33.175
33.126
33.116
33.115
33.102
33.052
32.963
32.875
32.837
32.891
33.125
33.61
34.361
35.289
36.216
36.965
37.44
37.611
37.513
37.247
36.932
36.642
36.394
36.173
35.952
35.75
35.607
35.575
35.685
35.928
36.232
36.52
36.742
36.85
36.82
36.684
36.484
36.243
35.989
35.741
35.516
35.322
35.148
34.986
34.836
34.709
34.61
34.547
34.519
34.496
34.462
34.407
34.351
34.297
34.236
34.203
34.28
34.587
35.211
36.125
37.165
38.114
38.802
39.15
39.186
38.996
38.686
38.352
38.053
37.8
37.56
37.313
37.092
36.948
36.916
37.004
37.183
37.392
37.546
37.611
37.592
37.488
37.303
37.047
36.753
36.443
36.133
35.837
35.566
35.342
35.161
35.014
34.901
34.813
34.735
34.671
34.615
34.548
34.458
34.342
34.222
34.131
34.129
34.308
34.75
35.467
36.391
37.356
38.158
38.654
38.819
38.718
38.449
38.098
37.738
37.401
37.083
36.772
36.486
36.268
36.166
36.192
36.303
36.465
36.653
36.804
36.846
36.762
36.58
36.341
36.072
35.789
35.498
35.211
34.936
34.687
34.473
34.29
34.129
33.993
33.895
33.829
33.783
33.737
33.673
33.591
33.505
33.407
33.309
33.223
33.19
33.289
33.615
34.221
35.044
35.923
36.67
37.139
37.289
37.181
36.899
36.534
36.174
35.855
35.568
35.299
35.07
34.918
34.887
35.006
35.242
35.527
35.797
35.982
36.045
35.983
35.82
35.598
35.364
35.145
34.937
34.73
34.524
34.336
34.201
34.115
34.043
33.955
33.866
33.803
33.773
33.767
33.759
33.726
33.68
33.652
33.696
33.9
34.336
35.003
35.8
36.571
37.154
37.446
37.461
37.28
36.987
36.655
36.334
36.03
35.738
35.464
35.245
35.125
35.15
35.33
35.623
35.953
36.222
36.358
36.361
36.257
36.075
35.854
35.623
35.404
35.202
35.017
34.843
34.68
34.537
34.423
34.341
34.276
34.213
34.15
34.109
34.097
34.097
34.077
34.031
34.011
34.112
34.426
35.01
35.815
36.713
37.535
38.127
38.414
38.41
38.203
37.882
37.514
37.15
36.816
36.514
36.25
36.041
35.939
35.994
36.195
36.488
36.798
37.053
37.211
37.256
37.189
37.024
36.793
36.526
36.257
36.001
35.768
35.558
35.367
35.209
35.084
34.972
34.864
34.77
34.687
34.618
34.563
34.514
34.47
34.46
34.556
34.855
35.423
36.228
37.127
37.936
38.506
38.774
38.761
38.539
38.204
37.833
37.447
37.054
36.679
36.361
36.142
36.063
36.153
36.412
36.766
37.111
37.375
37.528
37.565
37.489
37.315
37.072
36.805
36.543
36.299
36.074
35.874
35.703
35.547
35.42
35.337
35.284
35.228
35.157
35.085
35.031
35.0
35.028
35.196
35.59
36.233
37.052
37.922
38.7
39.257
39.526
39.519
39.29
38.925
38.514
38.1
37.679
37.274
36.95
36.762
36.744
36.899
37.187
37.525
37.831
38.056
38.173
38.163
38.034
37.809
37.526
37.233
36.967
36.732
36.52
36.315
36.121
35.958
35.83
35.72
35.617
35.533
35.475
35.42
35.376
35.388
35.543
35.95
36.67
37.646
38.716
39.695
40.432
40.837
40.906
40.698
40.307
39.835
39.354
38.906
38.507
38.162
37.914
37.82
37.917
38.196
38.596
39.006
39.319
39.481
39.48
39.341
39.1
38.794
38.466
38.139
37.819
37.509
37.225
36.977
36.756
36.56
36.388
36.232
36.084
35.947
35.841
35.762
35.731
35.815
36.108
36.703
37.595
38.657
39.715
40.577
41.115
41.302
41.183
40.838
40.364
39.834
39.29
38.758
38.283
37.94
37.801
37.877
38.131
38.498
38.885
39.206
39.399
39.437
39.321
