39.846
39.884
39.932
39.921
39.804
39.557
39.188
38.744
38.272
37.801
37.342
36.902
36.484
36.092
35.736
35.427
35.165
34.949
34.762
34.586
34.429
34.292
34.172
34.058
33.951
33.847
33.743
33.639
33.531
33.416
33.277
33.116
32.953
32.792
32.644
32.586
32.799
33.551
35.009
37.031
39.209
41.069
42.271
42.761
42.699
42.339
41.892
41.467
41.105
40.808
40.534
40.211
39.817
39.405
39.063
38.865
38.83
38.923
39.074
39.198
39.206
39.058
38.769
38.389
37.961
37.509
37.052
36.609
36.194
35.822
35.494
35.195
34.924
34.694
34.51
34.364
34.239
34.135
34.045
33.953
33.862
33.773
33.683
33.589
33.479
33.336
33.166
32.987
32.808
32.654
32.558
32.621
33.07
34.145
35.897
38.063
40.166
41.758
42.615
42.792
42.531
42.092
41.647
41.26
40.941
40.654
40.344
39.977
39.565
39.198
38.95
38.876
38.967
39.138
39.284
39.335
39.25
39.023
38.684
38.277
37.842
37.412
36.995
36.597
36.227
35.887
35.583
35.324
35.103
34.921
34.777
34.673
34.6
34.544
34.492
34.439
34.38
34.307
34.2
34.046
33.863
33.68
33.52
33.377
33.268
33.325
33.794
34.904
36.655
38.722
40.628
41.979
42.622
42.652
42.311
41.843
41.395
41.016
40.709
40.425
40.092
39.684
39.25
38.894
38.714
38.736
38.9
39.088
39.188
39.136
38.926
38.593
38.193
37.76
37.304
36.859
36.444
36.062
35.711
35.38
35.092
34.861
34.678
34.53
34.41
34.309
34.224
34.148
34.059
33.942
33.792
33.608
33.406
33.207
33.037
32.974
33.186
33.876
35.119
36.745
38.39
39.688
40.427
40.614
40.426
40.072
39.703
39.408
39.184
38.979
38.723
38.376
37.963
37.588
37.352
37.295
37.375
37.499
37.572
37.544
37.39
37.112
36.747
36.352
35.972
35.615
35.266
34.923
34.601
34.317
34.064
33.838
33.648
33.489
33.359
33.252
33.167
33.093
32.998
32.863
32.694
32.51
32.33
32.166
32.033
32.013
32.294
33.043
34.252
35.698
37.057
38.054
38.587
38.728
38.626
38.433
38.256
38.139
38.085
38.037
37.912
37.672
37.338
36.996
36.751
36.646
36.653
36.697
36.703
36.637
36.496
36.281
36.0
35.69
35.368
35.054
34.762
34.487
34.231
33.983
33.746
33.536
33.361
33.211
33.082
32.959
32.823
32.671
32.523
32.398
32.294
32.2
32.094
31.964
31.82
31.684
31.559
31.438
31.319
31.213
31.15
31.23
31.625
32.46
33.666
34.997
36.17
36.986
37.405
37.528
37.508
37.467
37.478
37.541
37.631
37.709
37.708
37.581
37.346
37.075
36.856
36.743
36.722
36.746
36.754
36.709
36.607
36.454
36.251
36.017
35.775
35.538
35.303
35.068
34.838
34.628
34.444
34.285
34.153
34.031
33.914
33.799
33.685
33.563
33.444
33.345
33.254
33.163
33.075
32.98
32.876
32.776
32.665
32.537
32.405
32.29
32.202
32.156
32.238
32.605
33.353
34.41
35.54
36.495
37.113
37.38
37.427
37.396
37.376
37.407
37.487
37.583
37.643
37.615
37.488
37.295
37.1
36.959
36.904
36.919
36.96
36.976
36.928
36.823
36.678
36.497
36.289
36.076
35.869
35.679
35.508
35.339
35.168
35.003
34.85
34.713
34.588
34.489
34.412
34.334
34.242
34.142
34.038
33.925
33.813
33.722
33.654
33.583
33.489
33.379
33.268
33.165
33.063
32.963
32.872
32.814
32.862
33.143
33.774
34.736
35.825
36.763
37.364
37.613
37.618
37.526
37.443
37.408
37.431
37.501
37.578
37.591
37.502
37.332
37.145
37.013
36.98
37.036
37.123
37.179
37.176
37.11
36.988
36.824
36.632
36.438
36.26
36.099
35.948
35.791
35.638
35.502
35.381
35.273
35.178
35.092
35.018
34.953
34.886
34.822
34.755
34.684
34.611
34.523
34.415
34.297
34.189
34.095
33.998
33.884
33.778
33.75
33.911
34.382
35.181
36.168
37.106
37.78
38.107
38.146
38.019
37.856
37.747
37.72
37.756
37.793
37.771
37.662
37.481
37.294
37.188
37.204
37.313
37.452
37.542
37.547
37.47
37.33
37.154
36.971
36.794
36.626
36.456
36.286
36.128
35.983
35.847
35.727
35.628
35.551
35.479
35.41
35.34
35.273
35.211
35.149
35.079
34.987
34.871
34.744
34.623
34.517
34.442
34.486
34.781
35.424
36.352
37.357
38.205
38.738
38.95
38.939
38.827
38.716
38.66
38.661
38.697
38.722
38.678
38.54
38.333
38.142
38.04
38.054
38.151
38.265
38.326
38.302
38.199
38.041
37.85
37.641
37.43
37.225
37.027
36.843
36.663
36.481
36.309
36.166
36.053
35.963
35.887
35.811
35.725
35.619
35.509
35.403
35.29
35.168
35.038
34.914
34.819
34.8
34.985
35.516
36.413
37.515
38.557
39.309
39.695
39.79
39.729
39.628
39.558
39.545
39.582
39.637
39.657
39.576
39.385
39.142
38.925
38.796
38.769
38.806
38.85
38.846
38.772
38.64
38.465
38.249
38.0
37.743
37.502
37.279
37.066
36.857
36.651
36.445
36.251
36.086
35.961
35.856
35.752
35.649
35.551
35.457
35.346
35.208
35.045
34.875
34.726
34.607
34.508
34.481
34.673
35.237
36.195
37.361
38.452
39.25
39.671
39.777
39.715
39.607
39.532
39.526
39.574
39.629
39.621
39.499
39.266
38.986
38.748
38.607
38.566
38.587
38.614
38.599
38.519
38.367
38.155
37.907
37.65
37.388
37.123
36.868
36.631
36.41
36.199
35.998
35.807
35.635
35.489
35.373
35.267
35.15
35.016
34.873
34.719
34.556
34.393
34.255
34.171
34.22
34.537
35.217
36.199
37.273
38.194
38.785
39.024
39.01
38.884
38.754
38.665
38.623
38.61
38.589
38.496
38.301
38.038
37.781
37.597
37.518
37.532
37.58
37.6
37.542
37.397
37.193
36.968
36.727
36.475
36.232
35.998
35.771
35.556
35.352
35.167
35.002
34.859
34.741
34.63
34.515
34.397
34.28
34.16
34.036
33.918
33.846
33.93
34.309
35.043
36.025
37.034
37.849
38.341
38.513
38.477
38.357
38.241
38.166
38.133
38.107
38.042
37.903
37.677
37.415
37.194
37.067
37.035
37.065
37.103
37.092
37.022
36.895
36.724
36.512
36.272
36.022
35.766
35.522
35.304
35.099
34.913
34.752
34.619
34.504
34.401
34.297
34.19
34.073
33.958
33.853
33.752
33.654
33.567
33.54
33.693
34.174
35.027
36.106
37.159
37.953
38.381
38.481
38.391
38.25
38.131
38.058
38.032
38.011
37.939
37.768
37.532
37.305
37.155
37.125
37.194
37.297
37.36
37.331
37.217
37.043
36.84
36.621
36.392
36.156
35.918
35.689
35.481
35.298
35.148
35.027
34.922
34.828
34.748
34.682
34.621
34.538
34.426
34.3
34.187
34.093
34.019
34.017
34.222
34.773
35.694
36.822
37.871
38.614
38.976
39.021
38.893
38.734
38.627
38.591
38.607
38.588
38.46
38.23
37.97
37.771
37.692
37.726
37.817
37.893
37.911
37.846
37.704
37.508
37.292
37.069
36.843
36.619
36.395
36.17
35.962
35.783
35.637
35.517
35.405
35.293
35.18
35.067
34.954
34.833
34.706
34.581
34.462
34.356
34.309
34.449
34.926
35.795
36.919
38.032
38.889
39.378
39.535
39.491
39.376
39.28
39.248
39.262
39.249
39.147
38.946
38.686
38.437
38.262
38.195
38.205
38.235
38.245
38.203
38.083
37.892
37.651
37.394
37.134
36.869
36.607
36.356
36.127
35.915
35.713
35.525
35.359
35.215
35.094
34.983
34.875
34.777
34.689
34.607
34.514
34.395
34.254
34.098
33.945
33.804
33.682
33.594
33.605
33.878
34.587
35.724
37.058
38.274
39.123
39.547
39.642
39.576
39.492
39.456
39.474
39.522
39.544
39.477
39.296
39.032
38.764
38.567
38.474
38.475
38.511
38.513
38.443
38.296
38.095
37.857
37.587
37.306
37.026
36.761
36.518
36.28
36.052
35.846
35.664
35.496
35.345
35.209
35.086
34.968
34.854
34.745
34.637
34.519
34.382
34.231
34.077
33.921
33.772
33.63
33.505
33.415
33.45
33.787
34.551
35.702
36.993
38.095
38.806
39.114
39.135
39.02
38.901
38.841
38.836
38.844
38.813
38.696
38.486
38.227
37.988
37.827
37.775
37.805
37.852
37.856
37.779
37.618
37.398
37.146
36.879
36.616
36.354
36.087
35.834
35.61
35.408
35.222
35.047
34.889
34.752
34.641
34.545
34.45
34.357
34.259
34.147
34.027
33.894
33.75
33.605
33.462
33.321
33.189
33.104
33.174
33.545
34.311
35.391
36.539
37.486
38.063
38.263
38.206
38.039
37.877
37.783
37.755
37.75
37.688
37.52
37.258
36.991
36.818
36.784
36.865
36.989
37.07
37.06
36.954
36.77
36.541
36.292
36.04
35.792
35.557
35.341
35.143
34.954
34.787
34.651
34.531
34.409
34.294
34.205
34.135
34.063
33.972
33.856
33.715
33.567
33.434
33.321
33.221
33.161
33.257
33.658
34.435
35.486
36.551
37.383
37.86
38.004
37.935
37.785
37.661
37.61
37.609
37.607
37.54
37.373
37.133
36.895
36.725
36.655
36.68
36.758
36.823
36.82
36.737
36.587
36.388
36.159
35.923
35.699
35.483
35.267
35.063
34.875
34.703
34.545
34.395
34.26
34.148
34.052
33.973
33.901
33.826
33.733
33.631
33.527
33.417
33.301
33.18
33.063
32.951
32.867
32.884
33.142
33.774
34.78
35.97
37.056
37.812
38.172
38.221
38.107
37.965
37.88
37.865
37.896
37.919
37.861
37.691
37.454
37.233
37.082
37.014
37.012
37.039
37.051
37.016
36.918
36.767
36.583
36.368
36.133
35.897
35.676
35.469
35.267
35.061
34.859
34.676
34.524
34.401
34.296
34.201
34.11
34.014
33.917
33.83
33.751
33.675
33.599
33.514
33.41
33.286
33.162
33.054
32.959
32.876
32.864
33.062
33.624
34.592
35.815
37.002
37.882
38.35
38.473
38.389
38.24
38.125
38.074
38.078
38.105
38.094
37.998
37.819
37.591
37.379
37.245
37.214
37.254
37.297
37.298
37.234
37.107
36.936
36.738
36.518
36.292
36.066
35.833
35.606
35.393
35.194
35.024
34.879
34.751
34.641
34.545
34.446
34.345
34.255
34.177
34.104
34.018
33.917
33.807
33.7
33.599
33.489
33.364
33.251
33.166
33.113
33.155
33.455
34.178
35.308
36.598
37.722
38.458
38.771
38.758
38.57
38.349
38.192
38.134
38.145
38.16
38.103
37.946
37.717
37.505
37.372
37.338
37.393
37.483
37.55
37.541
37.434
37.255
37.037
36.798
36.554
36.317
36.09
35.878
35.686
35.506
35.326
35.166
35.033
34.919
34.82
34.731
34.652
34.583
34.508
34.425
34.334
34.24
34.132
34.012
33.89
33.775
33.677
33.67
33.908
34.538
35.559
36.778
37.902
38.697
39.073
39.096
38.914
38.681
38.502
38.399
38.353
38.315
38.227
38.049
37.802
37.574
37.441
37.433
37.521
37.644
37.75
37.785
37.708
37.525
37.284
37.035
36.791
36.547
36.308
36.084
35.877
35.684
35.503
35.338
35.198
35.085
34.991
34.91
34.844
34.778
34.695
34.59
34.463
34.331
34.209
34.108
34.064
34.189
34.642
35.513
36.695
37.935
38.944
39.548
39.746
39.659
39.465
39.288
39.178
39.121
39.091
39.047
38.931
38.721
38.461
38.236
38.113
38.109
38.184
38.277
38.318
38.269
38.128
37.906
37.633
37.342
37.066
36.822
36.592
36.351
36.111
35.89
35.699
35.536
35.397
35.269
35.15
35.041
34.943
34.854
34.762
34.659
34.547
34.424
34.293
34.163
34.035
33.912
33.845
33.963
34.443
35.387
36.71
38.119
39.281
39.994
40.257
40.217
40.047
39.878
39.773
39.733
39.714
39.671
39.558
39.341
39.064
38.811
38.645
38.584
38.611
38.67
38.693
38.632
38.489
38.283
38.026
37.737
37.435
37.145
36.874
36.617
36.374
36.148
35.945
35.773
35.627
35.489
35.373
35.281
35.198
35.119
35.037
34.945
34.848
34.743
34.638
34.545
34.468
34.404
34.403
34.598
35.163
36.165
37.471
38.779
39.795
40.38
40.575
40.515
40.362
40.234
40.187
40.206
40.226
40.171
39.997
39.721
39.408
39.132
38.949
38.877
38.892
38.938
38.947
38.87
38.704
38.471
38.194
37.898
37.593
37.3
37.022
36.745
36.464
36.194
35.958
35.772
35.62
35.485
35.361
35.241
35.127
35.023
34.918
34.798
34.667
34.529
34.383
34.232
34.084
33.954
33.886
34.014
34.529
35.543
36.949
38.427
39.632
40.357
40.608
40.542
40.356
40.191
40.106
40.094
40.102
40.056
39.901
39.639
39.322
39.043
38.861
38.794
38.804
38.828
38.809
38.709
38.525
38.273
37.98
37.664
37.342
37.025
36.714
36.41
36.125
35.869
35.637
35.429
35.249
35.089
34.937
34.793
34.668
34.557
34.45
34.334
34.206
34.065
33.918
33.761
33.59
33.422
33.275
33.156
33.119
33.322
33.955
35.069
36.486
37.868
38.912
39.484
39.627
39.507
39.303
39.131
39.034
38.989
38.953
38.861
38.674
38.406
38.124
37.908
37.796
37.78
37.816
37.843
37.805
37.676
37.468
37.215
36.931
36.631
36.336
36.055
35.787
35.525
35.278
35.053
34.856
34.69
34.552
34.427
34.308
34.203
34.111
34.019
33.914
33.781
33.618
33.456
33.311
33.175
33.053
33.004
33.178
33.739
34.72
35.952
37.128
37.982
38.411
38.478
38.329
38.113
37.937
37.845
37.805
37.747
37.611
37.38
37.107
36.878
36.761
36.762
36.836
36.933
36.99
36.961
36.838
36.641
36.402
36.147
35.892
35.644
35.406
35.177
34.962
34.769
34.608
34.479
34.369
34.277
34.194
34.113
34.023
33.915
33.79
33.662
33.537
33.418
33.315
33.28
33.428
33.902
34.751
35.853
36.946
37.778
38.231
38.349
38.248
38.066
37.907
37.817
37.792
37.766
37.658
37.443
37.174
36.948
36.835
36.843
36.931
37.04
37.096
37.059
36.928
36.722
36.487
36.25
36.013
35.781
35.56
35.338
35.129
34.949
34.791
34.65
34.535
34.445
34.368
34.296
34.224
34.137
34.025
33.896
33.766
33.645
33.534
33.47
33.554
33.937
34.72
35.824
36.992
37.939
38.5
38.684
38.627
38.496
38.397
38.374
38.41
38.446
38.422
38.301
38.084
37.831
37.615
37.475
37.424
37.443
37.473
37.457
37.367
37.204
36.993
36.764
36.525
36.285
36.048
35.816
35.596
35.408
35.238
35.068
34.909
34.784
34.681
34.582
34.489
34.402
34.309
34.203
34.094
33.998
33.913
33.817
33.698
33.566
33.438
33.328
33.245
33.247
33.465
34.066
35.082
36.35
37.565
38.458
38.928
39.045
38.977
38.874
38.812
38.822
38.889
38.957
38.958
38.853
38.656
38.415
38.202
38.08
38.057
38.094
38.126
38.099
37.997
37.825
37.6
37.349
37.102
36.864
36.637
36.416
36.188
35.97
35.772
35.587
35.418
35.274
35.154
35.044
34.944
34.856
34.766
34.664
34.554
34.442
34.317
34.176
34.033
33.899
33.778
33.683
33.669
33.861
34.411
35.353
36.519
37.632
38.451
38.887
39.0
38.923
38.795
38.714
38.712
38.766
38.807
38.765
38.615
38.379
38.124
37.916
37.804
37.785
37.815
37.832
37.792
37.675
37.496
37.277
37.034
36.786
36.542
36.311
36.086
35.867
35.662
35.478
35.311
35.156
35.006
34.87
34.764
34.683
34.6
34.507
34.413
34.319
34.203
34.058
33.905
33.77
33.655
33.549
33.494
33.609
34.045
34.868
35.971
37.099
37.993
38.514
38.677
38.596
38.429
38.296
38.239
38.245
38.274
38.263
38.154
37.947
37.703
37.51
37.423
37.435
37.499
37.554
37.551
37.469
37.317
37.113
36.889
36.674
36.456
36.231
36.015
35.818
35.634
35.468
35.319
35.182
35.061
34.97
34.901
34.833
34.751
34.651
34.533
34.402
34.272
34.164
34.087
34.095
34.316
34.881
35.784
36.842
37.797
38.447
38.729
38.721
38.567
38.394
38.281
38.243
38.242
38.211
38.088
37.874
37.629
37.429
37.338
37.367
37.469
37.564
37.592
37.523
37.37
37.163
36.935
36.705
36.476
36.25
36.033
35.826
35.637
35.482
35.361
35.256
35.162
35.076
34.979
34.859
34.729
34.598
34.479
34.37
34.273
34.225
34.327
34.708
35.44
36.436
37.462
38.273
38.74
38.877
38.792
38.623
38.479
38.416
38.421
38.432
38.38
38.221
37.971
37.707
37.516
37.451
37.496
37.576
37.625
37.612
37.52
37.347
37.113
36.861
36.619
36.392
36.18
35.98
35.793
35.635
35.517
35.437
35.368
35.296
35.22
35.147
35.071
34.982
34.875
34.768
34.68
34.631
34.688
34.988
35.632
36.586
37.665
38.614
39.252
39.542
39.574
39.486
39.396
39.375
39.438
39.54
39.6
39.552
39.366
39.104
38.879
38.764
38.769
38.839
38.896
38.889
38.806
38.666
38.479
38.256
38.011
37.761
37.522
37.297
37.092
36.908
36.737
36.576
36.435
36.313
36.203
36.1
36.009
35.912
35.798
35.655
35.485
35.311
35.14
34.977
34.834
34.735
34.754
35.022
35.642
36.567
37.587
38.431
38.939
39.115
39.068
38.942
38.846
38.831
38.89
38.982
39.028
38.952
38.74
38.449
38.176
38.004
37.959
38.004
38.063
38.066
37.981
37.825
37.62
37.38
37.127
36.878
36.639
36.411
36.198
36.005
35.828
35.655
35.489
35.34
35.214
35.104
35.0
34.899
34.805
34.715
34.621
34.506
34.375
34.239
34.107
33.975
33.846
33.73
33.622
33.534
33.523
33.717
34.244
35.108
36.132
37.055
37.687
37.977
37.997
37.885
37.776
37.739
37.778
37.857
37.91
37.874
37.731
37.507
37.276
37.116
37.066
37.115
37.206
37.262
37.237
37.141
36.992
36.805
36.592
36.367
36.143
35.933
35.753
35.597
35.443
35.29
35.144
35.011
34.891
34.785
34.68
34.584
34.491
34.394
34.298
34.207
34.108
33.994
33.887
33.799
33.712
33.616
33.516
33.423
33.338
33.27
33.24
33.323
33.657
34.329
35.275
36.274
37.061
37.496
37.603
37.509
37.364
37.252
37.203
37.219
37.26
37.266
37.195
37.038
36.83
36.655
36.589
36.641
36.759
36.871
36.921
36.874
36.737
36.553
36.357
36.158
35.965
35.79
35.628
35.471
35.317
35.176
35.049
34.938
34.84
34.748
34.66
34.581
34.515
34.445
34.361
34.274
34.197
34.123
34.051
33.971
33.879
33.785
33.698
33.616
33.532
33.443
33.353
33.288
33.291
33.449
33.868
34.588
35.517
36.442
37.132
37.475
37.518
37.382
37.192
37.041
36.977
36.987
37.02
37.004
36.901
36.737
36.583
36.504
36.529
36.644
36.794
36.916
36.959
36.902
36.761
36.585
36.412
36.258
36.11
35.966
35.825
35.691
35.57
35.461
35.374
35.308
35.261
35.23
35.213
35.201
35.191
35.177
35.157
35.128
35.092
35.057
35.017
34.965
34.904
34.842
34.787
34.727
34.643
34.55
34.475
34.428
34.417
34.51
34.836
35.478
36.35
37.242
37.946
38.347
38.457
38.367
38.189
38.017
37.91
37.884
37.905
37.903
37.824
37.691
37.567
37.521
37.595
37.779
38.0
38.184
38.284
38.283
38.196
38.061
37.907
37.751
37.602
37.465
37.333
37.201
37.085
36.976
36.872
36.782
36.696
36.609
36.54
36.495
36.451
36.403
36.357
36.314
36.273
36.226
36.181
36.143
36.103
36.048
35.981
35.906
35.822
35.732
35.658
35.608
35.613
35.776
36.209
36.91
37.748
38.52
39.054
39.288
39.273
39.11
38.905
38.736
38.617
38.53
38.444
38.323
38.154
37.949
37.757
37.657
37.687
37.817
37.979
38.104
38.147
38.099
37.982
37.824
37.646
37.463
37.283
37.112
36.951
36.8
36.653
36.509
36.37
36.246
36.133
36.018
35.919
35.852
35.795
35.717
35.622
35.535
35.473
35.423
35.363
35.28
35.195
35.124
35.052
34.958
34.855
34.762
34.679
34.615
34.608
34.758
35.18
35.889
36.76
37.567
38.11
38.319
38.252
38.029
37.768
37.538
37.374
37.262
37.161
37.024
36.84
36.654
36.544
36.559
36.688
36.871
37.047
37.159
37.176
37.101
36.973
36.823
36.664
36.493
36.31
36.13
35.973
35.829
35.7
35.596
35.509
35.424
35.332
35.24
35.165
35.11
35.063
35.012
34.953
34.892
34.835
34.778
34.719
34.663
34.607
34.532
34.436
34.334
34.247
34.184
34.153
34.173
34.314
34.685
35.342
36.182
36.975
37.515
37.722
37.651
37.419
37.142
36.888
36.668
36.458
36.237
36.021
35.846
35.738
35.738
35.871
36.097
36.341
36.535
36.631
36.632
36.558
36.433
36.278
36.121
35.976
35.838
35.702
35.572
35.449
35.336
35.231
35.142
35.074
35.021
34.967
34.908
34.854
34.815
34.787
34.762
34.729
34.693
34.655
34.614
34.568
34.511
34.441
34.36
34.285
34.236
34.263
34.459
34.918
35.613
36.381
37.006
37.363
37.434
37.275
36.999
36.702
36.42
36.169
35.939
35.724
35.538
35.418
35.406
35.529
35.765
36.059
36.32
36.478
36.531
36.497
36.403
36.27
36.115
35.969
35.85
35.743
35.632
35.518
35.406
35.291
35.181
35.09
35.036
35.019
35.017
35.014
35.006
35.002
35.004
35.001
34.979
34.944
34.905
34.86
34.814
34.792
34.853
35.091
35.565
36.216
36.889
37.425
37.721
37.765
37.619
37.365
37.073
36.786
36.523
36.282
36.07
35.921
35.886
36.002
36.246
36.54
36.814
37.021
37.134
37.145
37.084
36.988
36.871
36.749
36.622
36.497
36.378
36.264
36.16
36.066
35.992
35.944
35.908
35.876
35.845
35.815
35.784
35.755
35.729
35.69
35.649
35.618
35.62
35.708
35.965
36.442
37.097
37.779
38.302
38.565
38.578
38.417
38.182
37.916
37.63
37.326
37.04
36.818
36.702
36.724
36.882
37.139
37.426
37.68
37.844
37.891
37.84
37.727
37.581
37.419
37.257
37.108
36.976
36.85
36.723
36.608
36.511
36.44
36.386
36.333
36.275
36.215
36.154
36.086
36.023
35.985
36.004
36.144
36.483
37.039
37.716
38.351
38.783
38.942
38.864
38.644
38.37
38.09
37.807
37.524
37.265
37.075
36.99
37.037
37.215
37.487
37.771
37.981
38.067
38.024
37.889
37.711
37.52
37.333
37.159
37.002
36.86
36.729
36.61
36.511
36.433
36.361
36.282
36.202
36.117
36.029
35.948
35.89
35.876
35.953
36.193
36.655
37.304
37.985
38.512
38.776
38.786
38.613
38.352
38.095
37.877
37.673
37.458
37.251
37.101
37.058
37.147
37.336
37.569
37.777
37.9
37.91
37.807
37.628
37.426
37.232
37.051
36.897
36.766
36.652
36.547
36.45
36.359
36.269
36.19
36.124
36.061
35.999
35.947
35.909
35.892
35.958
36.203
36.69
37.373
38.086
38.651
38.947
38.973
38.824
38.619
38.441
38.31
38.2
38.074
37.917
37.77
37.707
37.766
37.921
38.122
38.293
38.381
38.356
38.219
38.016
37.802
37.607
37.435
37.279
37.137
37.01
36.905
36.818
36.745
36.685
36.631
36.571
36.492
36.403
36.307
36.21
36.116
36.039
35.99
36.037
36.296
36.847
37.633
38.459
39.111
39.475
39.549
39.44
39.285
39.189
39.169
39.174
39.127
38.992
38.815
38.674
38.625
38.689
38.818
38.931
38.961
38.888
38.739
38.543
38.325
38.114
37.916
37.727
37.552
37.39
37.242
37.111
36.989
36.882
36.795
36.715
36.622
36.519
36.422
36.337
36.255
36.161
36.056
35.943
35.816
35.678
35.544
35.434
35.368
35.416
35.698
36.307
37.188
38.119
38.865
39.298
39.428
39.373
39.279
39.238
39.273
39.366
39.453
39.454
39.325
39.099
38.878
38.757
38.755
38.815
38.843
38.783
38.639
38.45
38.235
38.004
37.773
37.549
37.332
37.136
36.968
36.822
36.683
36.543
36.407
36.287
36.185
36.084
35.97
35.845
35.728
35.627
35.539
35.447
35.344
35.229
35.102
34.967
34.835
34.722
34.64
34.599
34.677
35.007
35.66
36.555
37.471
38.181
38.574
38.689
38.665
38.637
38.676
38.793
38.954
39.092
39.12
38.99
38.734
38.458
38.285
38.262
38.324
38.368
38.337
38.218
38.027
37.794
37.554
37.325
37.113
36.911
36.716
36.534
36.372
36.225
36.099
35.993
35.889
35.778
35.66
35.539
35.426
35.316
35.195
35.073
34.962
34.867
34.787
34.716
34.647
34.563
34.468
34.363
34.252
34.16
34.087
34.045
34.106
34.41
35.061
36.001
37.014
37.841
38.32
38.482
38.492
38.503
38.587
38.758
38.981
39.201
39.335
39.303
39.087
38.774
38.506
38.373
38.372
38.418
38.416
38.322
38.155
37.95
37.732
37.499
37.259
37.03
36.824
36.638
36.471
36.325
36.194
36.069
35.951
35.834
35.714
35.582
35.449
35.33
35.229
35.118
34.983
34.844
34.728
34.634
34.554
34.48
34.395
34.296
34.185
34.076
33.988
33.927
33.915
34.049
34.474
35.265
36.295
37.296
38.02
38.382
38.473
38.462
38.497
38.647
38.894
39.173
39.395
39.482
39.386
39.117
38.786
38.531
38.42
38.419
38.452
38.444
38.348
38.168
37.937
37.694
37.454
37.217
36.987
36.769
36.573
36.398
36.238
36.091
35.951
35.814
35.686
35.568
35.457
35.344
35.223
35.098
34.978
34.875
34.777
34.675
34.568
34.469
34.377
34.28
34.177
34.073
33.978
33.896
33.852
33.918
34.228
34.902
35.902
36.993
37.881
38.422
38.639
38.681
38.722
38.864
39.119
39.436
39.726
39.894
39.873
39.661
39.33
39.013
38.818
38.759
38.782
38.799
38.734
38.576
38.353
38.104
37.845
37.579
37.327
37.106
36.923
36.757
36.591
36.421
36.264
36.127
36.0
35.864
35.715
35.566
35.433
35.312
35.187
35.058
34.93
34.812
34.712
34.619
34.523
34.425
34.326
34.229
34.125
34.014
33.915
33.848
33.86
34.065
34.617
35.569
36.757
37.862
38.619
38.982
39.084
39.121
39.239
39.479
39.807
40.165
40.468
40.611
40.512
40.187
39.772
39.434
39.267
39.246
39.277
39.271
39.17
38.974
38.707
38.415
38.128
37.855
37.59
37.33
37.086
36.874
36.689
36.519
36.36
36.2
36.048
35.903
35.765
35.625
35.472
35.304
35.136
34.987
34.851
34.734
34.625
34.512
34.398
34.287
34.194
34.118
34.045
33.958
33.852
33.745
33.679
33.728
34.051
34.784
35.878
37.091
38.111
38.737
38.975
38.999
38.999
39.1
39.342
39.68
40.019
40.268
40.332
40.146
39.762
39.329
38.997
38.833
38.805
38.81
38.757
38.606
38.368
38.094
37.812
37.525
37.249
36.999
36.759
36.521
36.302
36.107
35.922
35.751
35.594
35.438
35.273
35.107
34.948
34.784
34.629
34.496
34.373
34.231
34.078
33.942
33.828
33.715
33.61
33.531
33.471
33.399
33.301
33.193
33.096
33.024
33.036
33.286
33.941
34.99
36.194
37.234
37.891
38.146
38.147
38.116
38.194
38.411
38.725
39.053
39.3
39.372
39.214
38.865
38.461
38.151
37.997
37.967
37.973
37.94
37.824
37.625
37.37
37.093
36.818
36.551
36.298
36.059
35.838
35.636
35.454
35.294
35.152
35.026
34.901
34.767
34.615
34.451
34.288
34.139
34.009
33.888
33.764
33.639
33.523
33.422
33.325
33.23
33.145
33.079
33.021
32.95
32.867
32.779
32.696
32.643
32.699
33.035
33.779
34.874
36.053
36.985
37.496
37.643
37.613
37.595
37.691
37.905
38.193
38.494
38.713
38.747
38.556
38.2
37.82
37.56
37.462
37.475
37.502
37.47
37.337
37.117
36.854
36.592
36.35
36.133
35.929
35.726
35.525
35.344
35.181
35.027
34.881
34.746
34.619
34.504
34.395
34.28
34.158
34.039
33.919
33.798
33.679
33.566
33.474
33.401
33.332
33.257
33.17
33.071
32.967
32.864
32.789
32.806
33.032
33.615
34.583
35.742
36.771
37.428
37.684
37.675
37.61
37.626
37.771
38.028
38.33
38.582
38.681
38.572
38.28
37.909
37.602
37.453
37.451
37.514
37.535
37.447
37.264
37.035
36.798
36.556
36.315
36.086
35.871
35.668
35.49
35.337
35.201
35.074
34.943
34.817
34.698
34.583
34.476
34.367
34.259
34.149
34.03
33.912
33.809
33.722
33.643
33.566
33.496
33.436
33.373
33.293
33.202
33.112
33.066
33.186
33.661
34.573
35.779
36.959
37.811
38.216
38.262
38.148
38.072
38.151
38.384
38.684
38.935
39.049
38.986
38.752
38.424
38.126
37.955
37.925
37.966
37.988
37.925
37.762
37.532
37.274
37.025
36.793
36.566
36.343
36.128
35.928
35.749
35.591
35.454
35.336
35.219
35.102
34.99
34.889
34.791
34.681
34.547
34.401
34.267
34.16
34.065
33.966
33.86
33.762
33.668
33.581
33.502
33.434
33.384
33.404
33.642
34.272
35.313
36.553
37.648
38.346
38.604
38.562
38.441
38.413
38.532
38.761
39.024
39.221
39.263
39.109
38.8
38.454
38.195
38.073
38.063
38.087
38.068
37.973
37.791
37.545
37.266
36.996
36.758
36.544
36.346
36.154
35.97
35.798
35.64
35.5
35.365
35.237
35.118
34.998
34.879
34.761
34.643
34.51
34.372
34.237
34.117
34.027
33.956
33.889
33.817
33.739
33.656
33.565
33.476
33.413
33.49
33.896
34.777
36.029
37.31
38.27
38.751
38.835
38.728
38.624
38.642
38.803
39.041
39.264
39.379
39.327
39.099
38.786
38.512
38.358
38.328
38.353
38.364
38.3
38.145
37.923
37.664
37.399
37.146
36.913
36.69
36.469
36.265
36.078
35.913
35.773
35.646
35.53
35.413
35.286
35.156
35.028
34.91
34.807
34.709
34.6
34.482
34.369
34.268
34.177
34.099
34.026
33.944
33.844
33.74
33.652
33.606
33.686
34.078
34.933
36.187
37.535
38.604
39.182
39.291
39.141
38.971
38.927
39.054
39.292
39.527
39.648
39.589
39.354
39.029
38.737
38.571
38.543
38.591
38.62
38.572
38.426
38.199
37.926
37.634
37.349
37.09
36.857
36.649
36.457
36.278
36.113
35.959
35.813
35.679
35.557
35.447
35.337
35.21
35.069
34.928
34.801
34.688
34.587
34.49
34.391
34.29
34.187
34.085
33.978
33.87
33.77
33.687
33.716
34.055
34.867
36.108
37.473
38.582
39.204
39.342
39.195
39.001
38.909
38.973
39.149
39.341
39.441
39.376
39.147
38.838
38.57
38.421
38.399
38.442
38.463
38.409
38.261
38.041
37.783
37.503
37.223
36.962
36.729
36.519
36.329
36.149
35.973
35.796
35.64
35.509
35.401
35.301
35.189
35.058
34.919
34.788
34.665
34.549
34.443
34.338
34.232
34.125
34.015
33.892
33.761
33.652
33.657
33.946
34.678
35.839
37.163
38.269
38.898
39.037
38.885
38.676
38.569
38.605
38.74
38.893
38.97
38.895
38.671
38.38
38.136
38.011
38.006
38.057
38.076
38.009
37.854
37.629
37.364
37.093
36.834
36.593
36.372
36.162
35.96
35.774
35.615
35.477
35.349
35.226
35.1
34.978
34.868
34.779
34.684
34.565
34.438
34.315
34.204
34.112
34.02
33.91
33.782
33.663
33.591
33.668
34.061
34.885
36.054
37.266
38.191
38.656
38.712
38.554
38.39
38.34
38.419
38.568
38.696
38.703
38.547
38.287
38.034
37.881
37.851
37.902
37.955
37.936
37.816
37.617
37.376
37.123
36.868
36.624
36.402
36.208
36.04
35.89
35.748
35.611
35.484
35.369
35.259
35.152
35.05
34.939
34.821
34.709
34.627
34.558
34.472
34.36
34.229
34.085
33.951
33.854
33.816
33.937
34.386
35.25
36.401
37.52
38.305
38.638
38.622
38.462
38.348
38.363
38.497
38.663
38.755
38.696
38.482
38.192
37.944
37.83
37.848
37.924
37.965
37.923
37.782
37.576
37.341
37.098
36.863
36.634
36.424
36.232
36.047
35.866
35.701
35.554
35.429
35.318
35.213
35.107
34.989
34.86
34.739
34.64
34.554
34.453
34.332
34.203
34.075
33.966
33.878
33.794
33.708
33.664
33.779
34.246
35.15
36.331
37.458
38.234
38.558
38.535
38.377
38.282
38.328
38.48
38.66
38.763
38.709
38.506
38.25
38.049
37.966
37.994
38.057
38.078
38.01
37.846
37.619
37.363
37.11
36.879
36.669
36.476
36.305
36.148
36.007
35.881
35.76
35.637
35.516
35.399
35.289
35.195
35.112
35.02
34.916
34.806
34.697
34.601
34.506
34.393
34.271
34.149
34.034
33.938
33.905
34.063
34.557
35.441
36.567
37.628
38.345
38.636
38.616
38.479
38.394
38.432
38.566
38.715
38.783
38.703
38.484
38.202
37.968
37.861
37.865
37.912
37.919
37.853
37.711
37.51
37.27
37.016
36.758
36.513
36.302
36.126
35.971
35.818
35.664
35.515
35.378
35.268
35.172
35.078
34.972
34.857
34.747
34.645
34.546
34.45
34.342
34.219
34.095
33.971
33.855
33.753
33.658
33.573
33.549
33.704
34.197
35.088
36.219
37.287
38.027
38.339
38.315
38.15
38.031
38.053
38.195
38.367
38.467
38.407
38.198
37.921
37.683
37.568
37.571
37.618
37.63
37.561
37.405
37.187
36.939
36.692
36.462
36.244
36.032
35.833
35.658
35.511
35.391
35.273
35.146
35.012
34.883
34.778
34.699
34.62
34.529
34.429
34.328
34.229
34.128
34.013
33.895
33.787
33.685
33.592
33.533
33.604
33.974
34.749
35.816
36.909
37.737
38.149
38.207
38.108
38.023
38.036
38.149
38.3
38.406
38.385
38.198
37.908
37.639
37.478
37.46
37.519
37.567
37.533
37.405
37.212
36.987
36.76
36.536
36.316
36.102
35.905
35.733
35.58
35.442
35.31
35.182
35.074
34.986
34.896
34.796
34.696
34.6
34.504
34.405
34.297
34.183
34.068
33.944
33.826
33.722
33.619
33.521
33.484
33.662
34.22
35.178
36.324
37.343
37.988
38.212
38.164
38.044
37.979
38.029
38.174
38.337
38.417
38.325
38.082
37.794
37.559
37.444
37.447
37.488
37.471
37.368
37.19
36.959
36.711
36.477
36.269
36.083
35.912
35.75
35.582
35.417
35.269
35.141
35.027
34.923
34.826
34.725
34.623
34.521
34.434
34.357
34.258
34.118
33.957
33.805
33.685
33.596
33.544
33.631
34.015
34.782
35.798
36.775
37.459
37.765
37.795
37.729
37.708
37.778
37.916
38.061
38.139
38.075
37.852
37.552
37.297
37.166
37.168
37.244
37.282
37.213
37.044
36.816
36.575
36.337
36.115
35.926
35.76
35.6
35.441
35.297
35.166
35.042
34.927
34.813
34.709
34.617
34.535
34.457
34.371
34.284
34.199
34.118
34.03
33.918
33.79
33.668
33.567
33.485
33.423
33.432
33.648
34.214
35.127
36.192
37.109
37.677
37.881
37.857
37.791
37.812
37.952
38.158
38.345
38.424
38.331
38.084
37.787
37.556
37.455
37.453
37.478
37.459
37.371
37.215
37.01
36.786
36.576
36.378
36.182
35.997
35.836
35.687
35.53
35.376
35.254
35.149
35.041
34.931
34.824
34.723
34.624
34.54
34.466
34.387
34.28
34.156
34.039
33.94
33.855
33.776
33.719
33.734
33.954
34.504
35.371
36.362
37.2
37.697
37.84
37.783
37.714
37.737
37.856
38.038
38.207
38.274
38.175
37.921
37.624
37.405
37.338
37.384
37.455
37.472
37.394
37.236
37.033
36.809
36.595
36.396
36.21
36.029
35.854
35.702
35.568
35.439
35.322
35.226
35.148
35.076
35.004
34.928
34.841
34.751
34.653
34.545
34.425
34.289
34.154
34.047
33.982
33.984
34.171
34.671
35.484
36.415
37.205
37.684
37.84
37.795
37.713
37.708
37.812
37.983
38.136
38.178
38.055
37.798
37.513
37.315
37.261
37.298
37.33
37.304
37.209
37.055
36.854
36.635
36.425
36.226
36.028
35.846
35.682
35.543
35.422
35.318
35.227
35.138
35.044
34.955
34.869
34.781
34.702
34.635
34.558
34.447
34.31
34.173
34.054
33.962
33.908
33.937
34.179
34.753
35.611
36.52
37.22
37.575
37.638
37.564
37.51
37.57
37.736
37.941
38.088
38.089
37.923
37.667
37.428
37.291
37.268
37.312
37.351
37.337
37.249
37.088
36.891
36.685
36.491
36.328
36.186
36.044
35.893
35.746
35.619
35.51
35.42
35.343
35.272
35.201
35.127
35.052
34.977
34.891
34.788
34.664
34.535
34.424
34.342
34.318
34.418
34.759
35.404
36.248
37.055
37.608
37.849
37.868
37.801
37.773
37.838
37.985
38.153
38.241
38.154
37.911
37.632
37.438
37.377
37.412
37.468
37.478
37.414
37.285
37.117
36.928
36.727
36.539
36.371
36.205
36.033
35.879
35.755
35.644
35.531
35.427
35.335
35.258
35.185
35.116
35.036
34.932
34.804
34.664
34.532
34.419
34.325
34.28
34.339
34.606
35.163
35.95
36.762
37.366
37.654
37.687
37.613
37.56
37.59
37.699
37.829
37.905
37.842
37.632
37.363
37.137
37.025
37.029
37.091
37.139
37.126
37.032
36.87
36.673
36.484
36.31
36.142
35.973
35.813
35.667
35.539
35.43
35.343
35.272
35.208
35.151
35.089
35.012
34.912
34.791
34.665
34.545
34.455
34.388
34.37
34.49
34.858
35.501
36.297
37.025
37.508
37.7
37.684
37.604
37.582
37.662
37.818
37.972
38.027
37.921
37.685
37.436
37.294
37.286
37.365
37.449
37.473
37.408
37.277
37.11
36.927
36.744
36.57
36.412
36.272
36.138
36.011
35.898
35.8
35.708
35.617
35.539
35.477
35.42
35.351
35.26
35.145
35.016
34.904
34.826
34.8
34.898
35.231
35.855
36.653
37.395
37.885
38.084
38.087
38.028
38.021
38.101
38.232
38.35
38.398
38.322
38.125
37.883
37.708
37.669
37.743
37.835
37.862
37.794
37.644
37.444
37.238
37.052
36.892
36.75
36.608
36.454
36.298
36.172
36.082
36.012
35.953
35.888
35.81
35.717
35.604
35.484
35.368
35.254
35.143
35.05
35.012
35.099
35.422
36.025
36.791
37.5
37.971
38.159
38.155
38.09
38.062
38.115
38.224
38.334
38.36
38.251
38.041
37.832
37.711
37.697
37.75
37.801
37.795
37.71
37.562
37.386
37.205
37.027
36.854
36.687
36.528
36.383
36.268
36.177
36.079
35.968
35.87
35.796
35.736
35.679
35.613
35.532
35.426
35.289
35.149
35.033
34.947
34.9
34.947
35.201
35.73
36.465
37.196
37.712
37.941
37.952
37.871
37.817
37.853
37.974
38.11
38.163
38.068
37.848
37.597
37.42
37.372
37.424
37.492
37.504
37.437
37.287
37.088
36.887
36.704
36.549
36.409
36.278
36.159
36.049
35.937
35.846
35.776
35.704
35.612
35.501
35.4
35.32
35.241
35.148
35.035
34.91
34.801
34.716
34.657
34.669
34.849
35.278
35.909
36.561
37.039
37.254
37.245
37.13
37.031
37.019
37.079
37.141
37.124
36.993
36.775
36.558
36.431
36.424
36.489
36.544
36.531
36.441
36.293
36.122
35.942
35.756
35.575
35.415
35.27
35.135
35.007
34.885
34.763
34.648
34.549
34.468
34.394
34.319
34.235
34.141
34.046
33.966
33.894
33.816
33.733
33.643
33.552
33.475
33.45
33.557
33.896
34.498
35.235
35.876
36.259
36.363
36.289
36.172
36.119
36.168
36.27
36.343
36.321
36.193
36.021
35.877
35.819
35.861
35.957
36.044
36.075
36.04
35.937
35.78
35.611
35.474
35.373
35.289
35.209
35.128
35.052
34.982
34.918
34.857
34.801
34.746
34.688
34.634
34.589
34.554
34.518
34.472
34.406
34.319
34.229
34.171
34.133
34.103
34.116
34.27
34.657
35.257
35.919
36.439
36.688
36.695
36.588
36.499
36.483
36.536
36.62
36.668
36.628
36.494
36.323
36.195
36.158
36.205
36.301
36.381
36.384
36.306
36.168
35.995
35.836
35.709
35.599
35.491
35.394
35.319
35.261
35.21
35.167
35.118
35.057
34.989
34.939
34.902
34.851
34.784
34.702
34.61
34.517
34.426
34.333
34.252
34.186
34.126
34.07
34.062
34.195
34.568
35.166
35.836
36.374
36.642
36.636
36.485
36.322
36.228
36.216
36.258
36.292
36.254
36.118
35.935
35.79
35.738
35.772
35.831
35.86
35.821
35.721
35.589
35.451
35.312
35.174
35.043
34.935
34.854
34.782
34.709
34.631
34.557
34.486
34.413
34.346
34.285
34.229
34.176
34.12
34.056
33.987
33.912
33.842
33.786
33.745
33.715
33.695
33.744
33.982
34.466
35.091
35.658
35.998
36.078
35.992
35.853
35.762
35.765
35.849
35.95
35.992
35.925
35.777
35.638
35.594
35.656
35.77
35.866
35.899
35.858
35.767
35.662
35.568
35.473
35.37
35.272
35.183
35.082
34.974
34.867
34.776
34.708
34.649
34.59
34.539
34.51
34.502
34.486
34.455
34.413
34.365
34.317
34.269
34.233
34.228
34.298
34.525
34.962
35.552
36.14
36.557
36.722
36.67
36.527
36.412
36.387
36.447
36.517
36.517
36.422
36.268
36.14
36.107
36.174
36.288
36.377
36.394
36.332
36.224
36.101
35.979
35.86
35.749
35.656
35.578
35.508
35.439
35.382
35.353
35.345
35.332
35.3
35.251
35.201
35.154
35.108
35.06
35.01
34.964
34.977
35.122
35.459
35.964
36.514
36.962
37.233
37.354
37.381
37.402
37.46
37.552
37.643
37.679
37.627
37.506
37.386
37.334
37.374
37.475
37.569
37.601
37.556
37.461
37.348
37.237
37.129
37.028
36.936
36.847
36.755
36.674
36.616
36.583
36.558
36.522
36.469
36.4
36.329
36.269
36.212
36.136
36.051
35.977
35.915
35.865
35.863
35.995
36.351
36.931
37.6
38.162
38.503
38.628
38.642
38.67
38.776
38.97
39.199
39.372
39.405
39.279
39.054
38.849
38.756
38.782
38.865
38.928
38.921
38.836
38.686
38.507
38.33
38.158
37.986
37.819
37.652
37.481
37.304
37.123
36.954
36.793
36.644
36.507
36.384
36.271
36.162
36.06
35.958
35.839
35.708
35.58
35.479
35.4
35.352
35.385
35.571
35.974
36.549
37.129
37.559
37.772
37.821
37.812
37.835
37.934
38.092
38.231
38.249
38.11
37.856
37.599
37.459
37.456
37.522
37.572
37.553
37.45
37.28
37.085
36.908
36.759
36.628
36.5
36.372
36.254
36.151
36.063
35.98
35.893
35.798
35.703
35.623
35.548
35.469
35.395
35.33
35.254
35.16
35.054
34.946
34.861
34.803
34.759
34.724
34.78
35.026
35.487
36.067
36.608
36.962
37.105
37.125
37.145
37.241
37.406
37.601
37.76
37.799
37.677
37.434
37.186
37.052
37.053
37.12
37.162
37.118
36.979
36.786
36.575
36.374
36.197
36.044
35.916
35.799
35.657
35.485
35.312
35.189
35.134
35.119
35.087
35.021
34.945
34.871
34.802
34.736
34.671
34.598
34.526
34.452
34.365
34.289
34.242
34.208
34.171
34.162
34.254
34.522
34.968
35.49
35.951
36.236
36.336
36.337
36.346
36.425
36.58
36.774
36.925
36.969
36.874
36.671
36.451
36.304
36.268
36.307
36.358
36.369
36.31
36.187
36.031
35.869
35.711
35.546
35.37
35.205
35.061
34.933
34.821
34.724
34.646
34.579
34.509
34.435
34.361
34.289
34.21
34.14
34.096
34.076
34.061
34.034
33.998
33.948
33.891
33.837
33.801
33.801
33.859
34.027
34.37
34.885
35.459
35.931
36.204
36.292
36.313
36.375
36.51
36.694
36.889
37.048
37.098
36.998
36.772
36.521
36.335
36.252
36.246
36.247
36.21
36.116
35.973
35.805
35.633
35.465
35.3
35.144
35.016
34.916
34.84
34.787
34.745
34.714
34.681
34.636
34.592
34.561
34.548
34.536
34.513
34.484
34.45
34.409
34.365
34.33
34.314
34.318
34.359
34.485
34.787
35.278
35.841
36.307
36.579
36.665
36.662
36.667
36.721
36.81
36.901
36.954
36.927
36.785
36.539
36.264
36.075
36.02
36.053
36.092
36.079
35.99
35.848
35.711
35.601
35.511
35.426
35.341
35.256
35.174
35.101
35.048
35.026
35.025
35.025
35.017
34.994
34.957
34.909
34.853
34.801
34.761
34.732
34.722
34.772
34.946
35.287
35.771
36.289
36.716
36.966
37.042
37.033
37.049
37.156
37.331
37.515
37.649
37.676
37.568
37.35
37.095
36.878
36.754
36.718
36.719
36.698
36.637
36.529
36.386
36.23
36.065
35.899
35.735
35.594
35.483
35.399
35.331
35.275
35.237
35.218
35.2
35.165
35.112
35.051
34.992
34.942
34.906
34.893
34.932
35.067
35.357
35.821
36.373
36.859
37.164
37.294
37.333
37.371
37.455
37.599
37.78
37.929
37.978
37.888
37.687
37.455
37.274
37.191
37.184
37.183
37.134
37.043
36.925
36.784
36.63
36.475
36.322
36.175
36.041
35.927
35.827
35.741
35.682
35.639
35.589
35.516
35.427
35.329
35.247
35.191
35.162
35.17
35.261
35.525
35.984
36.541
37.029
37.329
37.441
37.466
37.512
37.626
37.798
37.992
38.148
38.204
38.116
37.91
37.676
37.515
37.478
37.528
37.585
37.584
37.498
37.351
37.171
36.979
36.798
36.622
36.445
36.279
36.144
36.048
35.977
35.912
35.838
35.748
35.656
35.553
35.435
35.327
35.253
35.207
35.212
35.325
35.632
36.124
36.674
37.117
37.355
37.437
37.462
37.507
37.609
37.763
37.941
38.09
38.154
38.091
37.902
37.665
37.484
37.422
37.459
37.533
37.573
37.541
37.453
37.329
37.199
37.079
36.967
36.857
36.75
36.66
36.591
36.54
36.5
36.449
36.371
36.271
36.163
36.059
35.96
35.866
35.806
35.838
36.03
36.384
36.807
37.161
37.343
37.37
37.334
37.311
37.337
37.422
37.529
37.602
37.591
37.475
37.256
37.008
36.833
36.793
36.86
36.936
36.933
36.838
36.696
36.558
36.448
36.365
36.288
36.206
36.119
36.042
35.984
35.951
35.928
35.899
35.859
35.802
35.725
35.634
35.552
35.504
35.491
35.556
35.789
36.216
36.741
37.206
37.504
37.623
37.656
37.714
37.841
38.021
38.203
38.353
38.428
38.389
38.23
37.973
37.718
37.562
37.527
37.569
37.602
37.567
37.463
37.328
37.182
37.048
36.928
36.817
36.703
36.588
36.475
36.372
36.289
36.229
36.195
36.171
36.14
36.077
35.974
35.859
35.756
35.658
35.569
35.509
35.497
35.592
35.868
36.313
36.787
37.14
37.302
37.3
37.24
37.23
37.306
37.445
37.604
37.72
37.743
37.635
37.4
37.115
36.897
36.8
36.8
36.834
36.838
36.771
36.636
36.483
36.356
36.259
36.182
36.104
36.02
35.94
35.868
35.803
35.746
35.693
35.638
35.571
35.502
35.439
35.385
35.333
35.28
35.231
35.196
35.166
35.131
35.084
35.024
34.953
34.89
34.864
34.908
35.096
35.476
35.992
36.499
36.835
36.941
36.893
36.818
36.806
36.875
36.999
37.131
37.227
37.231
37.096
36.838
36.542
36.327
36.253
36.286
36.325
36.305
36.221
36.085
35.929
35.784
35.676
35.599
35.537
35.468
35.394
35.332
35.29
35.264
35.238
35.203
35.15
35.084
35.037
35.017
35.007
34.979
34.922
34.837
34.743
34.664
34.614
34.607
34.672
34.869
35.24
35.717
36.162
36.461
36.588
36.607
36.627
36.695
36.819
36.975
37.124
37.215
37.203
37.074
36.855
36.613
36.436
36.359
36.35
36.348
36.309
36.213
36.075
35.923
35.773
35.628
35.486
35.358
35.252
35.16
35.074
35.001
34.948
34.917
34.895
34.867
34.822
34.768
34.711
34.654
34.619
34.591
34.553
34.515
34.48
34.446
34.416
34.416
34.493
34.734
35.183
35.733
36.195
36.446
36.502
36.469
36.455
36.513
36.648
36.82
36.98
37.066
37.022
36.851
36.613
36.399
36.279
36.259
36.295
36.326
36.294
36.198
36.063
35.923
35.791
35.672
35.554
35.439
35.335
35.245
35.162
35.077
35.001
34.941
34.896
34.862
34.827
34.791
34.762
34.739
34.691
34.612
34.522
34.446
34.404
34.412
34.489
34.666
34.991
35.465
35.976
36.373
36.567
36.58
36.511
36.474
36.513
36.626
36.775
36.899
36.939
36.861
36.672
36.428
36.225
36.141
36.168
36.241
36.299
36.296
36.224
36.119
36.017
35.93
35.835
35.738
35.649
35.576
35.514
35.456
35.403
35.369
35.343
35.3
35.234
35.162
35.09
35.03
34.991
34.965
34.939
34.899
34.841
34.777
34.718
34.677
34.655
34.633
34.606
34.609
34.714
35.011
35.498
36.045
36.459
36.626
36.59
36.47
36.384
36.401
36.518
36.676
36.818
36.879
36.803
36.593
36.335
36.135
36.057
36.078
36.139
36.183
36.177
36.112
36.016
35.929
35.852
35.771
35.674
35.571
35.48
35.427
35.404
35.386
35.35
35.303
35.259
35.222
35.184
35.142
35.092
35.055
35.022
34.986
34.946
34.902
34.864
34.846
34.849
34.872
34.938
35.133
35.534
36.097
36.65
37.012
37.122
37.056
36.951
36.915
36.973
37.093
37.213
37.246
37.149
36.945
36.704
36.515
36.432
36.445
36.499
36.527
36.487
36.396
36.298
36.219
36.134
36.03
35.931
35.84
35.76
35.701
35.661
35.646
35.64
35.63
35.612
35.584
35.546
35.491
35.422
35.371
35.367
35.471
35.745
36.16
36.584
36.885
37.01
36.995
36.931
36.889
36.901
36.96
37.034
37.08
37.035
36.88
36.667
36.472
36.355
36.336
36.383
36.44
36.451
36.402
36.311
36.2
36.096
36.005
35.937
35.889
35.846
35.79
35.715
35.661
35.637
35.626
35.62
35.606
35.572
35.52
35.455
35.387
35.321
35.26
35.206
35.195
35.297
35.61
36.15
36.758
37.229
37.444
37.432
37.323
37.24
37.249
37.347
37.489
37.607
37.646
37.56
37.353
37.089
36.873
36.769
36.778
36.832
36.871
36.861
36.795
36.692
36.586
36.502
36.44
36.391
36.345
36.287
36.213
36.142
36.087
36.041
35.989
35.92
35.841
35.764
35.686
35.621
35.586
35.567
35.556
35.54
35.507
35.458
35.403
35.341
35.257
35.16
35.078
35.042
35.079
35.269
35.692
36.278
36.83
37.174
37.254
37.151
37.003
36.916
36.931
37.019
37.14
37.229
37.243
37.159
36.984
36.762
36.567
36.457
36.435
36.446
36.44
36.411
36.354
36.272
36.163
36.035
35.918
35.817
35.73
35.652
35.591
35.546
35.503
35.45
35.391
35.346
35.314
35.286
35.242
35.166
35.085
35.025
34.996
34.983
34.974
34.954
34.921
34.872
34.805
34.732
34.688
34.712
34.855
35.19
35.721
36.298
36.717
36.868
36.788
36.616
36.489
36.459
36.531
36.665
36.788
36.828
36.749
36.57
36.36
36.206
36.148
36.171
36.228
36.267
36.264
36.218
36.136
36.04
35.946
35.867
35.792
35.721
35.657
35.605
35.587
35.599
35.618
35.619
35.59
35.544
35.488
35.417
35.33
35.246
35.186
35.154
35.145
35.178
35.339
35.712
36.251
36.8
37.171
37.273
37.176
37.017
36.905
36.885
36.952
37.065
37.156
37.174
37.089
36.925
36.747
36.607
36.537
36.544
36.594
36.634
36.631
36.583
36.503
36.414
36.33
36.25
36.182
36.118
36.056
35.989
35.923
35.881
35.867
35.865
35.857
35.832
35.795
35.749
35.685
35.604
35.522
35.437
35.362
35.306
35.263
35.238
35.24
35.294
35.492
35.905
36.465
36.988
37.29
37.323
37.18
36.995
36.872
36.859
36.938
37.063
37.173
37.211
37.149
36.996
36.808
36.661
36.604
36.627
36.672
36.699
36.693
36.656
36.586
36.487
36.381
36.286
36.202
36.119
36.038
35.966
35.906
35.862
35.82
35.768
35.712
35.665
35.634
35.615
35.59
35.545
35.486
35.43
35.388
35.355
35.312
35.26
35.209
35.18
35.216
35.409
35.842
36.439
36.975
37.269
37.277
37.103
36.9
36.774
36.758
36.829
36.938
37.03
37.049
36.964
36.789
36.596
36.467
36.438
36.484
36.545
36.584
36.576
36.516
36.422
36.331
36.25
36.173
36.103
36.038
35.976
35.92
35.874
35.855
35.854
35.86
35.868
35.848
35.788
35.709
35.631
35.561
35.508
35.492
35.577
35.842
36.301
36.852
37.293
37.491
37.453
37.287
37.133
37.069
37.1
37.193
37.284
37.318
37.267
37.127
36.941
36.766
36.66
36.648
36.706
36.773
36.81
36.795
36.727
36.626
36.519
36.418
36.329
36.256
36.196
36.148
36.109
36.079
36.057
36.032
35.996
35.953
35.901
35.851
35.804
35.765
35.753
35.844
36.142
36.652
37.219
37.633
37.777
37.693
37.513
37.363
37.314
37.368
37.475
37.57
37.602
37.536
37.376
37.171
36.995
36.899
36.894
36.943
37.0
37.026
36.994
36.914
36.807
36.693
36.593
36.511
36.439
36.381
36.34
36.309
36.277
36.232
36.171
36.107
36.049
36.004
35.973
35.95
35.976
36.152
36.553
37.111
37.638
37.96
38.025
37.908
37.739
37.632
37.62
37.688
37.792
37.878
37.901
37.823
37.646
37.44
37.282
37.211
37.227
37.279
37.312
37.295
37.235
37.149
37.051
36.947
36.85
36.773
36.702
36.63
36.56
36.498
36.446
36.405
36.358
36.29
36.21
36.135
36.093
36.129
36.349
36.819
37.448
38.005
38.316
38.357
38.227
38.059
37.955
37.957
38.041
38.143
38.211
38.209
38.118
37.959
37.781
37.645
37.581
37.571
37.58
37.585
37.572
37.535
37.464
37.355
37.218
37.071
36.956
36.869
36.797
36.718
36.631
36.557
36.502
36.455
36.412
36.366
36.312
36.25
36.183
36.112
36.036
35.99
36.081
36.439
37.066
37.769
38.293
38.497
38.428
38.247
38.095
38.039
38.077
38.162
38.237
38.263
38.222
38.106
37.927
37.75
37.642
37.606
37.607
37.616
37.614
37.585
37.514
37.398
37.269
37.153
37.055
36.963
36.869
36.758
36.634
36.521
36.44
36.387
36.332
36.266
36.198
36.134
36.076
36.023
35.966
35.898
35.837
35.788
35.737
35.672
35.599
35.53
35.467
35.408
35.333
35.28
35.344
35.683
36.365
37.215
37.931
38.306
38.323
38.108
37.85
37.69
37.651
37.688
37.745
37.784
37.772
37.682
37.543
37.421
37.35
37.334
37.354
37.384
37.391
37.362
37.295
37.198
37.084
36.961
36.831
36.707
36.614
36.537
36.47
36.414
36.364
36.309
36.24
36.178
36.135
36.1
36.06
36.007
35.939
35.862
35.793
35.759
35.846
36.191
36.815
37.554
38.151
38.446
38.45
38.29
38.104
37.993
37.98
38.043
38.129
38.183
38.167
38.065
37.894
37.715
37.591
37.538
37.55
37.595
37.625
37.601
37.523
37.412
37.285
37.157
37.037
36.919
36.801
36.684
36.569
36.477
36.41
36.366
36.323
36.253
36.17
36.098
36.046
35.994
35.926
35.851
35.785
35.729
35.761
36.041
36.647
37.448
38.167
38.59
38.68
38.541
38.332
38.165
38.095
38.107
38.164
38.225
38.242
38.183
38.051
37.888
37.751
37.693
37.714
37.76
37.777
37.748
37.675
37.576
37.455
37.311
37.163
37.024
36.907
36.806
36.709
36.617
36.53
36.443
36.364
36.291
36.226
36.177
36.123
36.052
35.966
35.88
35.873
36.095
36.64
37.432
38.231
38.788
39.007
38.972
38.824
38.688
38.617
38.611
38.638
38.658
38.644
38.575
38.447
38.285
38.143
38.052
38.014
38.013
38.029
38.025
37.967
37.861
37.727
37.578
37.418
37.255
37.101
36.965
36.846
36.731
36.618
36.521
36.443
36.368
36.283
36.191
36.102
36.015
35.948
36.0
36.339
37.028
37.919
38.726
39.24
39.421
39.362
39.2
39.062
38.989
38.977
39.006
39.033
39.007
38.897
38.716
38.517
38.362
38.281
38.261
38.276
38.287
38.256
38.169
38.039
37.878
37.698
37.522
37.349
37.183
37.029
36.876
36.731
36.604
36.48
36.36
36.249
36.152
36.07
36.022
36.096
36.451
37.16
38.074
38.917
39.471
39.691
39.666
39.523
39.366
39.255
39.192
39.156
39.109
39.027
38.888
38.708
38.538
38.418
38.349
38.318
38.303
38.279
38.219
38.119
37.986
37.829
37.655
37.46
37.256
37.06
36.873
36.689
36.526
36.388
36.258
36.115
35.976
35.861
35.759
35.657
35.55
35.468
35.521
35.873
36.595
37.552
38.472
39.117
39.402
39.404
39.268
39.122
39.013
38.942
38.871
38.781
38.664
38.508
38.327
38.157
38.032
37.962
37.932
37.925
37.916
37.884
37.808
37.663
37.459
37.246
37.051
36.869
36.686
36.501
36.314
36.137
35.98
35.835
35.697
35.574
35.474
35.398
35.322
35.232
35.122
35.007
34.944
35.078
35.577
36.467
37.547
38.513
39.111
39.295
39.192
38.974
38.773
38.628
38.528
38.457
38.385
38.281
38.143
38.022
37.976
37.999
38.054
38.098
38.119
38.11
38.055
37.948
37.798
37.619
37.428
37.226
37.027
36.855
36.701
36.553
36.405
36.254
36.108
35.977
35.864
35.762
35.661
35.589
35.608
35.834
36.362
37.132
37.945
38.6
39.004
39.161
39.156
39.079
38.978
38.866
38.751
38.636
38.494
38.321
38.139
37.972
37.847
37.777
37.761
37.756
37.726
37.654
37.544
37.396
37.217
37.022
36.822
36.609
36.386
36.159
35.937
35.731
35.55
35.392
35.254
35.121
34.988
34.852
34.725
34.603
34.506
34.547
34.913
35.675
36.708
37.735
38.489
38.866
38.914
38.764
38.554
38.356
38.185
38.032
37.874
37.699
37.504
37.299
37.116
36.996
36.939
36.937
36.973
37.0
36.971
36.868
36.712
36.539
36.375
36.204
36.013
35.81
35.61
35.429
35.263
35.111
34.983
34.869
34.755
34.636
34.514
34.391
34.288
34.245
34.401
34.944
35.916
37.101
38.166
38.86
39.121
39.057
38.845
38.611
38.412
38.255
38.104
37.93
37.722
37.481
37.261
37.098
37.006
36.995
37.039
37.092
37.118
37.081
36.952
36.759
36.544
36.325
36.112
35.906
35.707
35.521
35.342
35.176
35.03
34.895
34.765
34.643
34.528
34.415
34.304
34.262
34.486
35.143
36.205
37.42
38.459
39.086
39.278
39.164
38.921
38.679
38.487
38.327
38.155
37.929
37.644
37.331
37.047
36.845
36.734
36.708
36.742
36.778
36.768
36.696
36.57
36.398
36.193
35.978
35.765
35.566
35.38
35.195
35.012
34.842
34.692
34.555
34.418
34.286
34.173
34.075
33.996
34.006
34.275
34.969
36.054
37.283
38.339
39.006
39.247
39.167
38.942
38.695
38.484
38.302
38.118
37.906
37.656
37.38
37.121
36.936
36.846
36.842
36.88
36.92
36.914
36.83
36.681
36.501
36.298
36.079
35.855
35.637
35.434
35.239
35.046
34.863
34.687
34.518
34.372
34.249
34.132
34.029
34.05
34.385
35.166
36.319
37.564
38.576
39.159
39.311
39.199
38.993
38.772
38.556
38.352
38.141
37.9
37.617
37.335
37.098
36.933
36.854
36.856
36.901
36.938
36.933
36.871
36.748
36.582
36.389
36.185
35.987
35.79
35.59
35.382
35.175
34.981
34.806
34.649
34.498
34.349
34.239
34.316
34.785
35.724
36.961
38.158
39.029
39.47
39.553
39.428
39.228
39.022
38.818
38.597
38.351
38.071
37.769
37.488
37.261
37.096
37.01
37.008
37.046
37.062
37.018
36.907
36.744
36.55
36.344
36.132
35.918
35.704
35.498
35.3
35.105
34.906
34.705
34.52
34.366
34.24
34.135
34.13
34.44
35.235
36.442
37.751
38.819
39.448
39.658
39.586
39.382
39.15
38.935
38.741
38.538
38.287
37.991
37.688
37.426
37.251
37.177
37.174
37.215
37.253
37.248
37.185
37.058
36.881
36.679
36.477
36.28
36.076
35.864
35.646
35.431
35.224
35.025
34.848
34.691
34.541
34.408
34.385
34.666
35.418
36.598
37.915
39.022
39.715
39.978
39.934
39.734
39.49
39.247
39.012
38.76
38.473
38.156
37.844
37.586
37.422
37.363
37.391
37.457
37.516
37.529
37.468
37.321
37.12
36.893
36.645
36.4
36.176
35.975
35.791
35.599
35.382
35.168
34.984
34.82
34.673
34.588
34.713
35.262
36.296
37.629
38.908
39.83
40.297
40.398
40.283
40.074
39.836
39.604
39.36
39.084
38.77
38.43
38.122
37.899
37.77
37.734
37.768
37.819
37.826
37.764
37.625
37.431
37.208
36.963
36.701
36.441
36.199
35.98
35.761
35.528
35.293
35.081
34.911
34.782
34.671
34.582
34.665
35.162
36.182
37.554
38.911
39.924
40.473
40.621
40.527
40.33
40.11
39.887
39.658
39.389
39.068
38.722
38.392
38.132
37.956
37.87
37.862
37.892
37.907
37.855
37.724
37.53
37.299
37.047
36.782
36.509
36.232
35.964
35.708
35.472
35.259
35.063
34.886
34.718
34.551
34.398
34.263
34.138
34.032
34.028
34.344
35.167
36.448
37.887
39.139
39.978
40.364
40.41
40.278
40.088
39.895
39.692
39.457
39.17
38.829
38.465
38.145
37.912
37.779
37.73
37.73
37.735
37.713
37.646
37.517
37.322
37.078
36.802
36.517
36.241
35.962
35.687
35.436
35.198
34.964
34.747
34.56
34.399
34.253
34.12
33.998
33.883
33.768
33.649
33.545
33.542
33.825
34.574
35.795
37.247
38.581
39.538
40.043
40.189
40.122
39.953
39.744
39.521
39.286
39.021
38.725
38.407
38.103
37.863
37.71
37.641
37.623
37.616
37.582
37.51
37.4
37.243
37.038
36.789
36.522
36.27
36.025
35.766
35.494
35.233
34.995
34.773
34.569
34.39
34.234
34.101
33.976
33.854
33.742
33.647
33.555
33.467
33.389
33.317
33.234
33.13
33.06
33.189
33.726
34.768
36.188
37.678
38.926
39.758
40.166
40.255
40.161
39.987
39.78
39.569
39.336
39.064
38.758
38.438
38.154
37.95
37.824
37.766
37.769
37.792
37.787
37.719
37.589
37.411
37.205
36.975
36.714
36.431
36.137
35.841
35.569
35.336
35.122
34.916
34.721
34.537
34.373
34.23
34.111
34.006
33.9
33.796
33.698
33.609
33.599
33.822
34.459
35.549
36.913
38.242
39.281
39.919
40.174
40.154
39.996
39.796
39.58
39.337
39.046
38.714
38.37
38.057
37.807
37.628
37.518
37.474
37.471
37.465
37.426
37.344
37.215
37.034
36.81
36.561
36.304
36.047
35.786
35.514
35.248
35.007
34.79
34.596
34.42
34.254
34.106
33.974
33.854
33.754
33.658
33.557
33.458
33.395
33.472
33.885
34.786
36.117
37.61
38.919
39.818
40.267
40.353
40.216
39.985
39.729
39.473
39.197
38.874
38.526
38.196
37.91
37.692
37.56
37.525
37.569
37.649
37.71
37.704
37.615
37.451
37.235
36.988
36.724
36.449
36.18
35.928
35.692
35.472
35.268
35.069
34.889
34.743
34.617
34.49
34.371
34.338
34.551
35.215
36.382
37.834
39.22
40.261
40.848
41.03
40.942
40.73
40.502
40.274
40.018
39.7
39.322
38.93
38.584
38.324
38.183
38.156
38.196
38.254
38.275
38.23
38.114
37.946
37.742
37.505
37.233
36.943
36.65
36.371
36.119
35.88
35.666
35.478
35.303
35.133
34.977
34.845
34.817
35.079
35.819
37.057
38.566
39.986
41.027
41.594
41.761
41.684
41.508
41.312
41.119
40.901
40.614
40.234
39.801
39.392
39.079
38.887
38.799
38.782
38.794
38.791
38.738
38.613
38.406
38.141
37.832
37.491
37.147
36.828
36.54
36.278
36.033
35.798
35.574
35.374
35.191
35.008
34.827
34.704
34.816
35.372
36.45
37.904
39.414
40.652
41.442
41.801
41.848
41.717
41.506
41.268
41.026
40.77
40.461
40.085
39.675
39.291
38.98
38.768
38.654
38.61
38.584
38.523
38.397
38.191
37.919
37.602
37.262
36.931
36.616
36.304
35.979
35.662
35.372
35.122
34.902
34.7
34.514
34.351
34.2
34.058
33.918
33.781
33.716
33.914
34.587
35.803
37.387
38.986
40.255
41.033
41.358
41.37
41.228
41.04
40.836
40.619
40.373
40.077
39.722
39.327
38.941
38.623
38.405
38.277
38.202
38.144
38.067
37.947
37.772
37.535
37.245
36.914
36.553
36.191
35.858
35.565
35.293
35.024
34.762
34.506
34.276
34.086
33.92
33.752
33.584
33.436
33.328
33.24
33.149
33.056
32.958
32.849
32.733
32.674
32.876
33.591
34.881
36.556
38.264
39.668
40.59
41.034
41.138
41.062
40.908
40.73
40.536
40.3
40.004
39.658
39.287
38.938
38.649
38.446
38.338
38.29
38.251
38.174
38.035
37.837
37.586
37.299
36.994
36.692
36.391
36.076
35.751
35.424
35.111
34.841
34.62
34.427
34.246
34.071
33.912
33.772
33.644
33.529
33.424
33.33
33.237
33.133
33.018
32.897
32.785
32.712
32.821
33.327
34.381
35.913
37.632
39.189
40.332
40.985
41.218
41.189
41.049
40.873
40.676
40.448
40.162
39.813
39.436
39.073
38.779
38.569
38.431
38.351
38.305
38.257
38.181
38.053
37.854
37.584
37.27
36.934
36.609
36.306
36.007
35.704
35.407
35.136
34.9
34.691
34.493
34.301
34.118
33.956
33.817
33.7
33.601
33.507
33.407
33.297
33.177
33.059
32.995
33.13
33.678
34.755
36.257
37.891
39.325
40.343
40.91
41.113
41.089
40.95
40.758
40.537
40.281
39.985
39.652
39.271
38.875
38.546
38.33
38.214
38.16
38.123
38.065
37.968
37.819
37.611
37.356
37.073
36.774
36.451
36.112
35.776
35.452
35.143
34.858
34.596
34.368
34.163
33.971
33.792
33.635
33.506
33.391
33.285
33.189
33.096
32.995
32.889
32.773
32.689
32.798
33.338
34.442
35.993
37.679
39.147
40.175
40.733
40.901
40.812
40.592
40.317
40.021
39.71
39.374
39.013
38.64
38.283
37.987
37.799
37.734
37.75
37.786
37.789
37.725
37.592
37.393
37.138
36.853
36.551
36.239
35.927
35.615
35.306
35.008
34.723
34.475
34.281
34.12
33.967
33.827
33.715
33.612
33.497
33.406
33.454
33.831
34.704
36.053
37.644
39.132
40.23
40.833
40.998
40.873
40.616
40.326
40.039
39.745
39.404
39.003
38.575
38.171
37.855
37.665
37.607
37.638
37.708
37.762
37.739
37.619
37.419
37.167
36.878
36.575
36.257
35.929
35.617
35.34
35.099
34.882
34.681
34.496
34.32
34.154
34.006
33.887
33.821
33.923
34.429
35.502
37.037
38.716
40.176
41.171
41.657
41.732
41.564
41.306
41.029
40.759
40.476
40.134
39.714
39.255
38.827
38.502
38.315
38.259
38.279
38.313
38.298
38.199
38.026
37.792
37.5
37.17
36.834
36.505
36.178
35.858
35.563
35.299
35.061
34.866
34.713
34.568
34.412
34.252
34.091
33.94
33.907
34.206
35.043
36.43
38.127
39.773
41.049
41.797
42.07
42.032
41.854
41.621
41.371
41.101
40.786
40.423
40.014
39.581
39.18
38.869
38.682
38.604
38.581
38.547
38.451
38.289
38.068
37.799
37.498
37.167
36.82
36.466
36.113
35.782
35.469
35.169
34.891
34.648
34.43
34.234
34.073
33.946
33.833
33.715
33.585
33.433
33.285
33.175
33.131
33.279
33.847
34.991
36.628
38.45
40.068
41.206
41.81
41.995
41.921
41.72
41.482
41.244
41.005
40.721
40.36
39.927
39.478
39.095
38.832
38.673
38.573
38.493
38.41
38.296
38.129
37.896
37.602
37.266
36.904
36.545
36.206
35.877
35.545
35.226
34.924
34.654
34.426
34.227
34.039
33.852
33.681
33.536
33.408
33.28
33.161
33.056
32.96
32.869
32.775
32.665
32.535
32.405
32.367
32.629
33.429
34.858
36.726
38.642
40.218
41.261
41.789
41.944
41.877
41.706
41.495
41.27
41.028
40.736
40.377
39.962
39.555
39.225
38.995
38.854
38.777
38.721
38.649
38.527
38.334
38.083
37.785
37.442
37.081
36.714
36.35
36.002
35.675
35.372
35.088
34.813
34.572
34.376
34.198
34.024
33.865
33.737
33.629
33.526
33.418
33.29
33.148
33.014
32.952
33.125
33.755
34.961
36.606
38.352
39.86
40.907
41.461
41.619
41.532
41.34
41.122
40.893
40.633
40.319
39.938
39.517
39.106
38.753
38.5
38.351
38.272
38.209
38.12
37.983
37.773
37.484
37.138
36.764
36.366
35.962
35.583
35.237
34.907
34.581
34.285
34.042
33.847
33.684
33.541
33.433
33.361
33.3
33.229
33.148
33.055
32.941
32.835
32.847
33.167
33.994
35.344
37.002
38.631
39.929
40.751
41.112
41.14
40.99
40.779
40.54
40.268
39.954
39.58
39.154
38.726
38.346
38.061
37.883
37.791
37.759
37.733
37.662
37.532
37.334
37.075
36.773
36.446
36.116
35.795
35.486
35.178
34.88
34.612
34.384
34.183
33.996
33.818
33.655
33.504
33.366
33.238
33.133
33.165
33.541
34.43
35.803
37.418
38.948
40.128
40.845
41.127
41.104
40.93
40.698
40.441
40.157
39.832
39.449
39.014
38.575
38.19
37.908
37.747
37.681
37.651
37.607
37.51
37.351
37.141
36.88
36.58
36.261
35.934
35.608
35.286
34.972
34.683
34.423
34.187
33.975
33.781
33.59
33.402
33.244
33.198
33.45
34.19
35.471
37.105
38.726
39.991
40.742
41.018
40.971
40.743
40.427
40.097
39.792
39.483
39.117
38.688
38.244
37.862
37.603
37.486
37.469
37.484
37.481
37.434
37.32
37.132
36.874
36.554
36.198
35.848
35.529
35.233
34.953
34.696
34.461
34.236
34.023
33.837
33.684
33.604
33.722
34.237
35.285
36.788
38.444
39.896
40.881
41.339
41.372
41.175
40.895
40.614
40.349
40.061
39.701
39.263
38.791
38.362
38.04
37.861
37.806
37.822
37.854
37.833
37.713
37.496
37.209
36.888
36.563
36.241
35.926
35.629
35.351
35.093
34.851
34.624
34.42
34.234
34.058
33.941
34.059
34.647
35.808
37.403
39.089
40.504
41.436
41.87
41.923
41.763
41.529
41.297
41.076
40.832
40.505
40.073
39.575
39.094
38.701
38.428
38.269
38.191
38.132
38.045
37.9
37.667
37.359
37.005
36.631
36.263
35.904
35.561
35.258
34.995
34.756
34.537
34.341
34.171
34.009
33.843
33.698
33.655
33.91
34.674
36.009
37.715
39.4
40.715
41.512
41.84
41.851
41.706
41.513
41.321
41.134
40.905
40.582
40.139
39.614
39.09
38.649
38.332
38.127
37.997
37.897
37.77
37.583
37.333
37.023
36.673
36.303
35.918
35.54
35.202
34.905
34.618
34.334
34.066
33.826
33.618
33.43
33.26
33.122
33.011
32.906
32.783
32.64
32.504
32.388
32.273
32.144
32.013
31.964
32.198
32.966
34.385
36.289
38.28
39.955
41.07
41.616
41.747
41.662
41.505
41.334
41.166
40.978
40.725
40.371
39.925
39.437
38.978
38.601
38.329
38.156
38.045
37.932
37.774
37.55
37.26
36.915
36.549
36.182
35.827
35.474
35.116
34.77
34.454
34.171
33.925
33.717
33.543
33.394
33.248
33.084
32.923
32.786
32.672
32.563
32.44
32.315
32.203
32.099
31.987
31.87
31.831
32.071
32.828
34.201
36.013
37.896
39.487
40.563
41.103
41.235
41.149
40.981
40.794
40.604
40.387
40.101
39.728
39.275
38.804
38.395
38.083
37.858
37.709
37.612
37.519
37.367
37.139
36.866
36.582
36.266
35.912
35.542
35.181
34.841
34.525
34.233
33.972
33.737
33.519
33.319
33.144
32.992
32.857
32.727
32.587
32.458
32.357
32.28
32.206
32.111
31.995
31.865
31.734
31.611
31.552
31.705
32.295
33.472
35.16
37.035
38.705
39.899
40.559
40.784
40.737
40.574
40.371
40.148
39.917
39.653
39.31
38.889
38.444
38.035
37.712
37.488
37.357
37.283
37.219
37.113
36.932
36.696
36.417
36.102
35.758
35.416
35.092
34.778
34.461
34.157
33.89
33.647
33.414
33.213
33.051
32.91
32.778
32.649
32.524
32.411
32.317
32.227
32.134
32.026
31.925
31.84
31.758
31.665
31.561
31.498
31.653
32.267
33.48
35.193
37.083
38.756
39.936
40.535
40.651
40.496
40.246
39.98
39.723
39.476
39.196
38.841
38.425
38.009
37.672
37.453
37.364
37.356
37.359
37.332
37.26
37.115
36.885
36.592
36.259
35.901
35.554
35.236
34.935
34.648
34.373
34.111
33.871
33.656
33.482
33.336
33.204
33.091
33.008
32.935
32.844
32.733
32.616
32.515
32.424
32.343
32.261
32.173
32.174
32.482
33.322
34.743
36.525
38.291
39.677
40.506
40.806
40.745
40.507
40.218
39.931
39.646
39.331
38.976
38.585
38.181
37.82
37.559
37.422
37.389
37.419
37.459
37.469
37.414
37.252
36.985
36.652
36.293
35.938
35.604
35.292
34.997
34.722
34.463
34.218
34.013
33.853
33.717
33.583
33.467
33.369
33.256
33.119
32.985
32.887
32.889
33.153
33.888
35.169
36.828
38.521
39.891
40.748
41.108
41.124
40.951
40.694
40.395
40.095
39.803
39.484
39.117
38.703
38.279
37.925
37.696
37.589
37.555
37.541
37.519
37.455
37.31
37.076
36.778
36.441
36.092
35.752
35.437
35.141
34.858
34.582
34.322
34.091
33.9
33.751
33.619
33.477
33.347
33.235
33.134
33.029
32.949
33.034
33.507
34.54
36.096
37.896
39.539
40.726
41.377
41.579
41.492
41.259
40.976
40.692
40.414
40.116
39.779
39.39
38.962
38.546
38.194
37.945
37.805
37.745
37.708
37.642
37.511
37.306
37.028
36.693
36.336
35.972
35.618
35.276
34.945
34.627
34.328
34.059
33.825
33.618
33.433
33.273
33.14
33.014
32.888
32.782
32.703
32.626
32.523
32.398
32.273
32.16
32.094
32.262
32.936
34.26
36.105
38.107
39.847
41.037
41.641
41.799
41.692
41.475
41.238
41.004
40.762
40.484
40.134
39.714
39.265
38.836
38.491
38.266
38.151
38.094
38.039
37.928
37.737
37.484
37.202
36.913
36.61
36.266
35.88
35.493
35.132
34.804
34.516
34.273
34.058
33.853
33.657
33.487
33.335
33.195
33.079
32.977
32.861
32.725
32.595
32.485
32.391
32.299
32.202
32.099
32.006
31.978
32.175
32.843
34.143
36.004
38.076
39.911
41.203
41.883
42.08
41.987
41.759
41.482
41.194
40.897
40.589
40.246
39.84
39.402
38.993
38.676
38.47
38.35
38.264
38.177
38.072
37.916
37.692
37.423
37.128
36.81
36.468
36.101
35.72
35.352
35.017
34.715
34.451
34.216
33.996
33.787
33.608
33.473
33.365
33.256
33.131
32.999
32.875
32.766
32.676
32.59
32.497
32.381
32.251
32.158
32.247
32.733
33.791
35.439
37.425
39.319
40.783
41.682
42.058
42.051
41.822
41.515
41.2
40.88
40.542
40.171
39.754
39.303
38.861
38.486
38.219
38.06
37.978
37.934
37.87
37.756
37.585
37.344
37.044
36.711
36.364
36.004
35.64
35.284
34.947
34.635
34.35
34.091
33.851
33.637
33.458
33.319
33.21
33.107
32.993
32.87
32.76
32.667
32.583
32.499
32.4
32.277
32.152
32.073
32.201
32.783
33.988
35.746
37.762
39.619
40.983
41.743
41.997
41.911
41.64
41.288
40.903
40.505
40.093
39.646
39.166
38.693
38.277
37.958
37.757
37.66
37.631
37.614
37.562
37.451
37.276
37.036
36.741
36.418
36.084
35.741
35.389
35.027
34.683
34.384
34.129
33.903
33.681
33.47
33.287
33.135
33.018
32.914
32.814
32.724
32.649
32.587
32.513
32.413
32.294
32.196
32.232
32.627
33.614
35.232
37.237
39.213
40.766
41.706
42.068
42.0
41.682
41.257
40.8
40.351
39.911
39.448
38.956
38.475
38.07
37.77
37.596
37.558
37.611
37.692
37.731
37.677
37.522
37.279
36.974
36.633
36.268
35.902
35.556
35.216
34.89
34.588
34.325
34.102
33.915
33.756
33.614
33.487
33.373
33.263
33.141
33.01
32.921
33.033
33.604
34.796
36.537
38.51
40.294
41.571
42.235
42.378
42.17
41.766
41.287
40.805
40.341
39.869
39.37
38.85
38.362
37.961
37.693
37.573
37.583
37.665
37.731
37.723
37.624
37.437
37.162
36.824
36.467
36.112
35.762
35.412
35.069
34.762
34.503
34.284
34.091
33.916
33.76
33.621
33.483
33.344
33.245
33.305
33.761
34.838
36.531
38.556
40.482
41.946
42.789
43.051
42.903
42.536
42.101
41.675
41.27
40.85
40.39
39.891
39.372
38.888
38.511
38.27
38.155
38.133
38.154
38.143
38.046
37.85
37.578
37.252
36.88
36.49
36.108
35.736
35.378
35.049
34.763
34.517
34.305
34.121
33.956
33.796
33.629
33.462
33.343
33.366
33.758
34.775
36.467
38.565
40.615
42.206
43.144
43.478
43.393
43.103
42.74
42.365
41.991
41.593
41.139
40.612
40.038
39.469
38.984
38.641
38.437
38.326
38.258
38.186
38.067
37.877
37.602
37.256
36.854
36.429
36.019
35.633
35.268
34.929
34.613
34.316
34.041
33.8
33.596
33.429
33.294
33.177
33.055
32.917
32.772
32.627
32.523
32.604
33.133
34.355
36.265
38.534
40.674
42.298
43.25
43.59
43.522
43.249
42.902
42.537
42.176
41.795
41.358
40.856
40.301
39.736
39.232
38.835
38.562
38.395
38.285
38.18
38.019
37.777
37.471
37.123
36.748
36.355
35.947
35.537
35.14
34.775
34.451
34.158
33.886
33.645
33.433
33.251
33.089
32.928
32.766
32.62
32.495
32.382
32.28
32.187
32.091
31.987
31.874
31.766
31.668
31.63
31.86
32.673
34.254
36.453
38.854
40.969
42.462
43.261
43.48
43.333
43.015
42.642
42.264
41.878
41.47
41.011
40.486
39.928
39.411
38.989
38.682
38.48
38.353
38.245
38.119
37.946
37.705
37.398
37.043
36.657
36.263
35.874
35.486
35.093
34.706
34.356
34.063
33.817
33.6
33.4
33.213
33.047
32.901
32.768
32.643
32.533
32.44
32.347
32.236
32.11
31.992
31.888
31.812
31.882
32.375
33.542
35.397
37.648
39.828
41.525
42.553
42.961
42.94
42.685
42.307
41.876
41.438
41.0
40.525
39.993
39.438
38.915
38.466
38.121
37.905
37.805
37.773
37.719
37.596
37.396
37.128
36.805
36.44
36.046
35.652
35.258
34.874
34.52
34.201
33.919
33.664
33.432
33.225
33.035
32.867
32.716
32.587
32.474
32.361
32.243
32.137
32.06
32.009
31.95
31.856
31.738
31.66
31.786
32.406
33.747
35.762
38.103
40.269
41.864
42.752
43.014
42.858
42.473
41.993
41.484
40.985
40.485
39.966
39.427
38.905
38.453
38.113
37.907
37.832
37.844
37.868
37.839
37.724
37.513
37.217
36.868
36.492
36.106
35.709
35.319
34.944
34.597
34.289
34.031
33.813
33.612
33.41
33.225
33.082
32.987
32.915
32.831
32.721
32.6
32.482
32.38
32.374
32.693
33.614
35.235
37.331
39.479
41.25
42.377
42.842
42.806
42.47
41.994
41.481
40.969
40.466
39.949
39.403
38.851
38.343
37.935
37.672
37.566
37.593
37.681
37.736
37.695
37.542
37.286
36.955
36.588
36.207
35.823
35.446
35.082
34.747
34.442
34.163
33.928
33.738
33.583
33.449
33.332
33.217
33.094
32.972
32.865
32.859
33.175
34.075
35.65
37.711
39.831
41.566
42.665
43.111
43.051
42.703
42.237
41.744
41.277
40.827
40.351
39.826
39.277
38.756
38.322
38.024
37.89
37.892
37.963
38.017
37.988
37.851
37.607
37.277
36.874
36.424
35.968
35.542
35.163
34.824
34.514
34.243
34.031
33.867
33.733
33.599
33.449
33.288
33.122
32.968
32.937
33.28
34.283
36.015
38.207
40.401
42.141
43.194
43.58
43.469
43.08
42.59
42.106
41.667
41.242
40.771
40.216
39.595
38.983
38.455
38.074
37.859
37.773
37.767
37.766
37.696
37.531
37.277
36.941
36.539
36.11
35.689
35.286
34.906
34.555
34.237
33.961
33.723
33.51
33.308
33.128
32.964
32.803
32.701
32.856
33.551
34.984
37.06
39.364
41.397
42.805
43.49
43.583
43.316
42.876
42.384
41.899
41.447
41.005
40.505
39.917
39.275
38.666
38.177
37.855
37.682
37.601
37.554
37.49
37.357
37.138
36.843
36.475
36.049
35.6
35.166
34.775
34.428
34.112
33.81
33.531
33.281
33.054
32.845
32.659
32.505
32.462
32.76
33.687
35.363
37.603
39.942
41.885
43.141
43.679
43.662
43.322
42.851
42.373
41.927
41.492
41.013
40.443
39.787
39.121
38.526
38.058
37.741
37.572
37.505
37.457
37.35
37.168
36.911
36.579
36.189
35.769
35.338
34.915
34.502
34.127
33.809
33.528
33.26
33.019
32.828
32.687
32.568
32.431
32.279
32.124
32.0
32.027
32.469
33.632
35.597
38.08
40.56
42.536
43.758
44.25
44.212
43.896
43.47
43.013
42.552
42.089
41.594
41.027
40.38
39.711
39.104
38.637
38.331
38.16
38.069
37.973
37.817
37.594
37.306
36.949
36.544
36.127
35.708
35.287
34.866
34.459
34.091
33.765
33.474
33.22
33.011
32.841
32.695
32.563
32.442
32.33
32.229
32.129
32.024
31.908
31.781
31.669
31.694
32.15
33.361
35.401
37.983
40.584
42.682
43.992
44.527
44.494
44.151
43.667
43.152
42.672
42.218
41.729
41.134
40.463
39.801
39.218
38.765
38.464
38.295
38.187
38.07
37.898
37.653
37.34
36.969
36.561
36.134
35.703
35.274
34.852
34.454
34.087
33.75
33.448
33.191
32.976
32.802
32.656
32.523
32.403
32.285
32.162
32.044
31.937
31.828
31.734
31.799
32.338
33.649
35.761
38.34
40.822
42.709
43.789
44.13
43.94
43.462
42.891
42.329
41.787
41.256
40.707
40.093
39.428
38.796
38.283
37.95
37.794
37.751
37.733
37.676
37.532
37.294
36.973
36.594
36.182
35.752
35.308
34.873
34.477
34.117
33.786
33.481
33.213
33.002
32.847
32.72
32.597
32.468
32.34
32.224
32.116
32.009
31.912
31.873
32.062
32.792
34.311
36.558
39.132
41.467
43.117
43.923
44.005
43.614
42.997
42.335
41.724
41.157
40.588
39.966
39.283
38.613
38.065
37.72
37.575
37.577
37.644
37.694
37.654
37.489
37.203
36.819
36.375
35.911
35.458
35.027
34.622
34.249
33.917
33.625
33.375
33.166
32.998
32.853
32.721
32.589
32.444
32.291
32.172
32.193
32.585
33.643
35.482
37.901
40.415
42.485
43.781
44.26
44.105
43.578
42.919
42.267
41.658
41.068
40.462
39.813
39.131
38.471
37.909
37.536
37.382
37.388
37.461
37.503
37.45
37.265
36.954
36.549
36.098
35.633
35.178
34.748
34.345
33.971
33.632
33.333
33.089
32.9
32.749
32.623
32.514
32.405
32.29
32.168
32.034
31.958
32.155
32.963
34.622
37.037
39.753
42.173
43.851
44.655
44.729
44.334
43.718
43.065
42.465
41.918
41.391
40.814
40.143
39.418
38.741
38.201
37.85
37.682
37.627
37.605
37.548
37.404
37.161
36.836
36.466
36.067
35.63
35.171
34.716
34.278
33.862
33.476
33.118
32.802
32.538
32.315
32.103
31.903
31.731
31.593
31.482
31.379
31.286
31.208
31.146
31.086
31.012
30.921
30.821
30.815
31.167
32.253
34.285
37.086
40.114
42.743
44.526
45.339
45.374
44.932
44.278
43.583
42.922
42.306
41.719
41.115
40.46
39.774
39.118
38.582
38.225
38.044
37.971
37.929
37.868
37.722
37.459
37.102
36.683
36.233
35.771
35.301
34.83
34.389
33.986
33.613
33.262
32.95
32.696
32.495
32.331
32.187
32.056
31.92
31.781
31.636
31.504
31.383
31.298
31.389
31.941
33.267
35.436
38.152
40.865
43.038
44.369
44.853
44.696
44.165
43.493
42.829
42.222
41.64
41.023
40.338
39.603
38.88
38.258
37.795
37.505
37.359
37.305
37.281
37.22
37.075
36.823
36.471
36.042
35.569
35.088
34.626
34.187
33.763
33.349
32.977
32.668
32.418
32.209
32.024
31.854
31.703
31.571
31.463
31.376
31.31
31.237
31.135
31.002
30.87
30.839
31.155
32.166
34.077
36.744
39.679
42.261
44.048
44.925
45.025
44.613
43.96
43.24
42.539
41.883
41.245
40.567
39.842
39.129
38.502
38.017
37.698
37.523
37.458
37.453
37.43
37.316
37.076
36.726
36.313
35.881
35.437
34.981
34.53
34.096
33.688
33.313
32.976
32.683
32.426
32.213
32.045
31.906
31.771
31.629
31.486
31.348
31.226
31.194
31.474
32.395
34.153
36.586
39.222
41.504
43.029
43.712
43.726
43.322
42.714
42.059
41.428
40.82
40.208
39.555
38.852
38.158
37.547
37.076
36.77
36.619
36.567
36.533
36.463
36.316
36.081
35.78
35.434
35.044
34.619
34.189
33.779
33.397
33.059
32.76
32.493
32.241
31.997
31.788
31.634
31.528
31.45
31.363
31.245
31.1
30.942
30.833
30.917
31.451
32.679
34.609
36.932
39.167
40.897
41.937
42.31
42.166
41.722
41.178
40.629
40.103
39.574
38.997
38.37
37.741
37.186
36.763
36.495
36.388
36.387
36.414
36.389
36.276
36.074
35.802
35.473
35.095
34.686
34.277
33.896
33.548
33.223
32.928
32.669
32.444
32.238
32.037
31.853
31.702
31.575
31.443
31.306
31.211
31.312
31.867
33.068
34.873
36.96
38.879
40.278
41.045
41.263
41.105
40.747
40.297
39.818
39.345
38.88
38.387
37.843
37.285
36.795
36.445
36.264
36.218
36.234
36.247
36.206
36.09
35.898
35.637
35.322
34.973
34.601
34.226
33.87
33.551
33.268
33.022
32.805
32.611
32.41
32.196
31.986
31.801
31.668
31.643
31.914
32.726
34.176
36.061
37.981
39.539
40.502
40.867
40.794
40.487
40.09
39.679
39.282
38.876
38.434
37.957
37.474
37.035
36.714
36.557
36.536
36.58
36.608
36.587
36.502
36.336
36.095
35.813
35.494
35.138
34.771
34.445
34.183
33.964
33.757
33.55
33.349
33.162
33.013
32.895
32.787
32.74
32.959
33.712
35.076
36.83
38.562
39.896
40.656
40.894
40.795
40.535
40.227
39.931
39.646
39.323
38.925
38.456
37.982
37.585
37.317
37.189
37.173
37.214
37.253
37.224
37.096
36.872
36.571
36.23
35.891
35.575
35.286
35.005
34.732
34.476
34.256
34.071
33.906
33.749
33.584
33.409
33.256
33.257
33.641
34.609
36.123
37.898
39.538
40.745
41.408
41.608
41.534
41.348
41.151
40.973
40.793
40.564
40.232
39.779
39.253
38.751
38.365
38.128
38.019
37.978
37.93
37.83
37.664
37.428
37.131
36.792
36.441
36.098
35.76
35.435
35.121
34.831
34.576
34.36
34.173
34.004
33.847
33.702
33.548
33.372
33.19
33.031
32.947
33.069
33.627
34.776
36.43
38.267
39.904
41.072
41.698
41.889
41.829
41.687
41.562
41.478
41.4
41.266
41.001
40.572
40.024
39.474
39.02
38.7
38.517
38.413
38.312
38.18
38.0
37.76
37.452
37.092
36.705
36.325
35.969
35.642
35.329
35.021
34.723
34.449
34.205
34.001
33.82
33.645
33.466
33.289
33.112
32.947
32.802
32.681
32.581
32.491
32.393
32.268
32.125
31.976
31.827
31.715
31.752
32.17
33.211
34.889
36.902
38.812
40.268
41.138
41.501
41.548
41.458
41.338
41.244
41.159
41.036
40.836
40.522
40.086
39.592
39.138
38.789
38.549
38.386
38.249
38.111
37.952
37.758
37.519
37.218
36.858
36.473
36.092
35.723
35.369
35.038
34.731
34.448
34.176
33.919
33.696
33.509
33.343
33.187
33.036
32.885
32.735
32.599
32.481
32.374
32.271
32.161
32.033
31.887
31.734
31.59
31.5
31.593
32.1
33.184
34.786
36.601
38.246
39.451
40.136
40.411
40.44
40.365
40.274
40.2
40.124
40.0
39.787
39.454
39.025
38.56
38.139
37.826
37.628
37.519
37.44
37.336
37.182
36.973
36.709
36.414
36.109
35.799
35.467
35.107
34.745
34.415
34.133
33.895
33.679
33.464
33.256
33.072
32.92
32.798
32.685
32.565
32.432
32.308
32.206
32.115
32.031
31.941
31.838
31.726
31.611
31.495
31.387
31.336
31.503
32.131
33.354
35.039
36.843
38.392
39.454
40.014
40.207
40.194
40.1
39.999
39.915
39.835
39.712
39.499
39.168
38.756
38.346
38.012
37.778
37.628
37.533
37.464
37.384
37.256
37.059
36.798
36.501
36.192
35.87
35.545
35.218
34.885
34.568
34.297
34.068
33.871
33.699
33.548
33.39
33.212
33.037
32.891
32.78
32.677
32.572
32.47
32.368
32.27
32.175
32.087
31.999
31.899
31.795
31.691
31.595
31.553
31.704
32.286
33.453
35.123
36.975
38.635
39.839
40.51
40.733
40.679
40.512
40.345
40.206
40.08
39.938
39.733
39.429
39.045
38.65
38.327
38.117
38.02
37.999
37.988
37.933
37.809
37.619
37.374
37.075
36.744
36.409
36.081
35.761
35.447
35.152
34.885
34.639
34.415
34.205
34.012
33.845
33.701
33.564
33.429
33.307
33.199
33.104
33.017
32.925
32.816
32.701
32.591
32.487
32.383
32.277
32.175
32.126
32.299
32.94
34.209
35.992
37.924
39.589
40.703
41.224
41.291
41.105
40.83
40.556
40.31
40.098
39.892
39.622
39.262
38.87
38.528
38.286
38.171
38.163
38.205
38.239
38.221
38.116
37.905
37.619
37.296
36.958
36.608
36.255
35.915
35.593
35.292
35.018
34.779
34.572
34.394
34.234
34.089
33.956
33.845
33.755
33.675
33.589
33.486
33.377
33.251
33.104
32.99
33.058
33.52
34.546
36.122
37.989
39.75
41.057
41.776
41.978
41.826
41.505
41.159
40.854
40.59
40.329
40.023
39.646
39.22
38.813
38.497
38.311
38.264
38.299
38.341
38.336
38.245
38.055
37.78
37.438
37.061
36.685
36.322
35.979
35.65
35.332
35.05
34.808
34.598
34.418
34.255
34.107
33.966
33.83
33.694
33.556
33.427
33.346
33.454
33.993
35.142
36.835
38.746
40.456
41.65
42.237
42.327
42.125
41.805
41.458
41.133
40.855
40.601
40.293
39.882
39.391
38.899
38.485
38.209
38.069
38.014
37.983
37.926
37.798
37.572
37.265
36.91
36.539
36.165
35.777
35.378
35.0
34.658
34.357
34.09
33.85
33.635
33.46
33.308
33.154
33.002
32.856
32.716
32.574
32.43
32.283
32.148
32.148
32.521
33.488
35.058
36.969
38.794
40.165
40.916
41.106
40.948
40.651
40.344
40.084
39.864
39.649
39.397
39.057
38.617
38.115
37.627
37.241
37.002
36.881
36.813
36.736
36.622
36.463
36.245
35.957
35.605
35.225
34.854
34.508
34.18
33.858
33.537
33.225
32.955
32.741
32.567
32.408
32.255
32.112
31.978
31.855
31.74
31.631
31.527
31.429
31.322
31.205
31.083
30.965
30.9
31.041
31.632
32.827
34.504
36.323
37.894
38.959
39.48
39.582
39.457
39.254
39.038
38.837
38.656
38.473
38.252
37.956
37.594
37.221
36.898
36.655
36.497
36.417
36.388
36.349
36.251
36.08
35.85
35.586
35.295
34.991
34.689
34.391
34.099
33.817
33.541
33.29
33.062
32.873
32.723
32.591
32.464
32.346
32.243
32.155
32.067
31.966
31.85
31.727
31.618
31.523
31.434
31.432
31.723
32.505
33.821
35.466
37.085
38.347
39.1
39.406
39.426
39.3
39.116
38.927
38.764
38.627
38.471
38.243
37.926
37.56
37.209
36.938
36.766
36.674
36.619
36.571
36.5
36.387
36.22
36.014
35.77
35.491
35.189
34.886
34.605
34.354
34.115
33.877
33.646
33.443
33.263
33.108
32.974
32.856
32.758
32.672
32.579
32.472
32.362
32.254
32.139
32.017
31.914
31.92
32.215
32.996
34.301
35.92
37.515
38.788
39.568
39.88
39.871
39.687
39.456
39.255
39.092
38.945
38.77
38.525
38.203
37.851
37.541
37.313
37.182
37.129
37.114
37.082
37.0
36.87
36.694
36.474
36.213
35.927
35.637
35.35
35.071
34.8
34.542
34.308
34.114
33.948
33.802
33.66
33.516
33.378
33.25
33.131
33.023
32.916
32.806
32.754
32.899
33.444
34.509
35.992
37.594
38.954
39.838
40.228
40.243
40.055
39.811
39.57
39.349
39.138
38.912
38.644
38.317
37.975
37.672
37.447
37.314
37.273
37.297
37.318
37.285
37.168
36.971
36.721
36.444
36.15
35.852
35.55
35.251
34.984
34.762
34.572
34.4
34.235
34.079
33.928
33.774
33.62
33.471
33.349
33.289
33.407
33.896
34.886
36.303
37.865
39.209
40.093
40.468
40.452
40.231
39.952
39.697
39.488
39.306
39.098
38.817
38.462
38.083
37.747
37.517
37.406
37.398
37.441
37.462
37.413
37.279
37.085
36.855
36.589
36.29
35.975
35.668
35.378
35.105
34.854
34.64
34.462
34.31
34.162
34.008
33.861
33.723
33.592
33.46
33.344
33.334
33.613
34.374
35.652
37.245
38.798
39.974
40.631
40.822
40.709
40.482
40.254
40.069
39.935
39.823
39.67
39.419
39.06
38.667
38.335
38.105
37.984
37.944
37.943
37.932
37.862
37.712
37.475
37.177
36.85
36.528
36.228
35.944
35.662
35.375
35.097
34.86
34.675
34.528
34.398
34.257
34.098
33.938
33.793
33.66
33.52
33.378
33.316
33.522
34.199
35.408
36.971
38.545
39.804
40.58
40.884
40.86
40.682
40.487
40.337
40.241
40.165
40.039
39.81
39.466
39.056
38.67
38.369
38.173
38.078
38.044
38.011
37.928
37.781
37.566
37.297
36.999
36.691
36.371
36.043
35.726
35.434
35.17
34.925
34.693
34.467
34.252
34.068
33.913
33.778
33.65
33.524
33.395
33.277
33.169
33.062
32.953
32.824
32.675
32.521
32.423
32.531
33.069
34.188
35.785
37.53
39.033
40.047
40.528
40.6
40.459
40.259
40.097
40.0
39.937
39.849
39.691
39.435
39.088
38.703
38.355
38.105
37.97
37.915
37.885
37.82
37.691
37.495
37.254
36.986
36.705
36.404
36.081
35.75
35.442
35.169
34.929
34.715
34.512
34.316
34.135
33.969
33.815
33.672
33.539
33.423
33.322
33.227
33.122
33.0
32.864
32.727
32.605
32.529
32.622
33.098
34.112
35.603
37.281
38.778
39.839
40.404
40.574
40.493
40.305
40.117
39.979
39.881
39.768
39.587
39.315
38.972
38.614
38.301
38.085
37.974
37.933
37.9
37.834
37.716
37.55
37.34
37.088
36.801
36.507
36.217
35.927
35.624
35.326
35.051
34.808
34.595
34.407
34.234
34.066
33.902
33.752
33.62
33.499
33.385
33.276
33.168
33.068
32.978
32.89
32.782
32.653
32.527
32.448
32.536
32.996
33.993
35.496
37.227
38.812
39.974
40.62
40.829
40.769
40.6
40.408
40.233
40.084
39.929
39.733
39.478
39.159
38.809
38.49
38.26
38.134
38.079
38.047
37.986
37.868
37.686
37.449
37.177
36.891
36.598
36.295
35.976
35.655
35.348
35.07
34.822
34.599
34.402
34.216
34.037
33.869
33.714
33.574
33.45
33.334
33.231
33.135
33.048
32.958
32.856
32.746
32.634
32.521
32.47
32.665
33.337
34.585
36.253
37.986
39.426
40.368
40.79
40.813
40.613
40.341
40.092
39.889
39.703
39.5
39.241
38.923
38.586
38.274
38.031
37.873
37.81
37.813
37.838
37.823
37.722
37.523
37.253
36.956
36.654
36.344
36.026
35.714
35.419
35.141
34.878
34.64
34.43
34.231
34.052
33.894
33.763
33.657
33.565
33.472
33.372
33.278
33.18
33.076
32.974
32.871
32.767
32.7
32.799
33.313
34.413
36.021
37.813
39.38
40.427
40.91
40.946
40.719
40.388
40.05
39.764
39.54
39.325
39.052
38.698
38.307
37.972
37.746
37.645
37.635
37.681
37.733
37.731
37.644
37.468
37.216
36.916
36.593
36.275
35.973
35.682
35.392
35.114
34.859
34.638
34.453
34.284
34.117
33.954
33.811
33.684
33.563
33.442
33.322
33.207
33.117
33.159
33.556
34.502
35.975
37.689
39.255
40.386
40.981
41.114
40.948
40.632
40.278
39.956
39.678
39.414
39.111
38.749
38.362
37.994
37.695
37.497
37.417
37.433
37.48
37.481
37.4
37.234
37.002
36.724
36.414
36.092
35.78
35.484
35.197
34.922
34.656
34.393
34.149
33.942
33.777
33.639
33.499
33.343
33.201
33.09
33.0
32.922
32.841
32.753
32.669
32.577
32.477
32.395
32.444
32.858
33.86
35.465
37.405
39.259
40.678
41.503
41.776
41.674
41.4
41.083
40.794
40.549
40.325
40.087
39.779
39.391
38.98
38.618
38.366
38.225
38.154
38.125
38.109
38.06
37.939
37.734
37.459
37.154
36.833
36.489
36.131
35.777
35.446
35.15
34.885
34.647
34.421
34.211
34.018
33.856
33.723
33.598
33.465
33.331
33.223
33.139
33.053
32.953
32.849
32.746
32.647
32.554
32.542
32.808
33.607
35.049
36.951
38.927
40.556
41.581
41.988
41.945
41.666
41.314
40.982
40.685
40.402
40.117
39.807
39.442
39.03
38.655
38.377
38.216
38.148
38.131
38.125
38.083
37.963
37.767
37.52
37.232
36.914
36.571
36.213
35.853
35.511
35.194
34.904
34.634
34.383
34.168
33.984
33.826
33.678
33.533
33.402
33.289
33.189
33.096
33.014
32.935
32.842
32.727
32.599
32.482
32.42
32.554
33.147
34.386
36.198
38.238
40.06
41.346
41.99
42.096
41.864
41.477
41.054
40.667
40.338
40.04
39.714
39.323
38.903
38.526
38.245
38.08
38.012
38.015
38.05
38.053
37.982
37.828
37.596
37.299
36.969
36.615
36.261
35.91
35.571
35.246
34.941
34.665
34.423
34.221
34.05
33.899
33.765
33.644
33.535
33.437
33.357
33.294
33.233
33.153
33.045
32.926
32.825
32.844
33.202
34.144
35.728
37.703
39.644
41.151
42.016
42.267
42.094
41.708
41.252
40.813
40.423
40.071
39.706
39.305
38.885
38.497
38.208
38.054
38.021
38.068
38.133
38.164
38.123
37.993
37.776
37.493
37.163
36.805
36.443
36.092
35.764
35.455
35.165
34.889
34.639
34.426
34.245
34.082
33.941
33.831
33.748
33.659
33.547
33.43
33.324
33.229
33.157
33.181
33.507
34.405
35.964
37.961
39.965
41.561
42.534
42.911
42.854
42.561
42.181
41.795
41.428
41.084
40.739
40.36
39.936
39.5
39.12
38.854
38.717
38.676
38.679
38.667
38.607
38.492
38.307
38.044
37.72
37.366
37.004
36.642
36.283
35.928
35.597
35.301
35.029
34.771
34.54
34.349
34.199
34.082
33.971
33.846
33.716
33.59
33.458
33.325
33.249
33.397
34.024
35.308
37.163
39.242
41.093
42.377
43.005
43.083
42.799
42.356
41.891
41.461
41.082
40.727
40.343
39.897
39.429
39.013
38.709
38.541
38.495
38.539
38.599
38.595
38.49
38.294
38.027
37.722
37.385
37.012
36.617
36.231
35.874
35.558
35.278
35.03
34.809
34.607
34.426
34.267
34.118
33.975
33.844
33.723
33.622
33.607
33.877
34.674
36.129
38.089
40.151
41.864
42.937
43.328
43.2
42.782
42.272
41.779
41.343
40.952
40.56
40.117
39.627
39.158
38.802
38.608
38.572
38.645
38.761
38.849
38.843
38.708
38.46
38.121
37.732
37.32
36.911
36.525
36.186
35.89
35.617
35.371
35.154
34.959
34.769
34.579
34.399
34.246
34.195
34.426
35.17
36.557
38.444
40.42
42.048
43.05
43.41
43.288
42.899
42.427
41.976
41.58
41.208
40.802
40.323
39.779
39.248
38.827
38.587
38.538
38.613
38.717
38.764
38.692
38.487
38.169
37.788
37.379
36.968
36.574
36.201
35.856
35.539
35.24
34.97
34.745
34.557
34.373
34.183
34.008
33.926
34.113
34.796
36.08
37.811
39.645
41.184
42.157
42.527
42.445
42.121
41.742
41.402
41.102
40.807
40.47
40.023
39.46
38.862
38.351
37.998
37.82
37.779
37.79
37.777
37.686
37.501
37.219
36.864
36.456
36.021
35.598
35.217
34.881
34.575
34.295
34.049
33.835
33.634
33.437
33.243
33.05
32.866
32.718
32.716
33.074
33.982
35.436
37.183
38.835
40.053
40.706
40.86
40.673
40.336
39.995
39.727
39.526
39.32
39.021
38.586
38.038
37.482
37.044
36.777
36.651
36.606
36.584
36.526
36.391
36.166
35.878
35.549
35.195
34.83
34.469
34.132
33.826
33.546
33.287
33.057
32.86
32.691
32.54
32.392
32.245
32.11
31.989
31.877
31.769
31.667
31.568
31.471
31.368
31.256
31.138
31.028
30.934
30.849
30.758
30.672
30.598
30.523
30.485
30.656
31.287
32.519
34.223
36.047
37.602
38.642
39.127
39.186
39.028
38.82
38.647
38.52
38.416
38.295
38.131
37.9
37.605
37.274
36.977
36.767
36.651
36.588
36.53
36.446
36.325
36.151
35.913
35.615
35.286
34.96
34.66
34.376
34.1
33.831
33.587
33.372
33.176
33.004
32.849
32.699
32.541
32.379
32.235
32.116
32.017
31.919
31.817
31.719
31.621
31.503
31.381
31.27
31.156
31.038
30.984
31.151
31.72
32.744
34.069
35.408
36.485
37.162
37.452
37.469
37.361
37.238
37.159
37.128
37.106
37.041
36.892
36.66
36.399
36.158
35.974
35.862
35.824
35.828
35.828
35.779
35.666
35.499
35.305
35.099
34.888
34.673
34.44
34.193
33.95
33.734
33.551
33.39
33.251
33.118
32.98
32.851
32.749
32.669
32.577
32.457
32.338
32.256
32.197
32.145
32.093
32.032
31.964
31.879
31.78
31.685
31.606
31.551
31.559
31.769
32.372
33.411
34.698
35.926
36.846
37.361
37.522
37.462
37.327
37.216
37.166
37.151
37.127
37.069
36.959
36.795
36.615
36.458
36.342
36.282
36.283
36.316
36.345
36.334
36.259
36.123
35.955
35.772
35.587
35.4
35.207
35.024
34.857
34.698
34.537
34.386
34.257
34.163
34.078
33.978
33.869
33.768
33.686
33.621
33.554
33.475
33.383
33.295
33.218
33.145
33.068
32.987
32.92
32.871
32.82
32.797
32.933
33.409
34.29
35.427
36.534
37.367
37.82
37.942
37.85
37.676
37.507
37.388
37.32
37.283
37.243
37.159
37.021
36.842
36.66
36.528
36.471
36.48
36.522
36.559
36.551
36.488
36.378
36.243
36.085
35.913
35.727
35.538
35.352
35.186
35.044
34.917
34.8
34.68
34.552
34.43
34.339
34.272
34.209
34.155
34.102
34.042
33.973
33.902
33.823
33.733
33.639
33.554
33.518
33.615
33.994
34.745
35.767
36.806
37.613
38.057
38.161
38.049
37.838
37.616
37.434
37.323
37.266
37.23
37.153
37.003
36.807
36.632
36.556
36.594
36.7
36.819
36.891
36.892
36.82
36.696
36.546
36.39
36.229
36.058
35.883
35.719
35.577
35.459
35.362
35.278
35.2
35.119
35.027
34.934
34.849
34.774
34.718
34.703
34.846
35.281
36.045
37.023
37.975
38.678
39.051
39.142
39.059
38.907
38.762
38.665
38.621
38.605
38.562
38.454
38.286
38.104
37.966
37.917
37.955
38.05
38.151
38.197
38.157
38.034
37.856
37.66
37.471
37.282
37.094
36.916
36.752
36.6
36.459
36.325
36.186
36.041
35.904
35.779
35.675
35.604
35.598
35.78
36.297
37.184
38.281
39.314
40.052
40.418
40.485
40.376
40.206
40.06
39.967
39.922
39.903
39.848
39.708
39.488
39.238
39.023
38.879
38.825
38.845
38.888
38.909
38.868
38.738
38.536
38.3
38.055
37.81
37.559
37.309
37.082
36.886
36.722
36.579
36.444
36.304
36.144
35.977
35.823
35.701
35.622
35.655
35.946
36.621
37.639
38.787
39.778
40.414
40.664
40.625
40.451
40.275
40.165
40.124
40.107
40.067
39.965
39.773
39.499
39.2
38.96
38.82
38.766
38.758
38.745
38.686
38.559
38.37
38.131
37.866
37.591
37.319
37.064
36.834
36.619
36.413
36.228
36.067
35.925
35.777
35.612
35.441
35.288
35.147
35.023
34.941
35.0
35.36
36.115
37.175
38.296
39.205
39.749
39.926
39.869
39.726
39.598
39.539
39.527
39.513
39.454
39.313
39.076
38.775
38.486
38.281
38.182
38.148
38.134
38.106
38.029
37.888
37.678
37.428
37.173
36.926
36.684
36.439
36.205
35.996
35.809
35.632
35.457
35.291
35.147
35.025
34.909
34.786
34.654
34.521
34.392
34.276
34.192
34.225
34.541
35.255
36.309
37.473
38.462
39.096
39.357
39.351
39.228
39.105
39.033
39.02
39.039
39.033
38.954
38.773
38.508
38.241
38.035
37.916
37.873
37.872
37.868
37.812
37.688
37.502
37.278
37.04
36.811
36.589
36.372
36.162
35.953
35.753
35.557
35.366
35.205
35.082
34.984
34.894
34.802
34.699
34.575
34.444
34.325
34.219
34.118
34.022
33.957
34.015
34.379
35.165
36.299
37.502
38.486
39.09
39.314
39.27
39.121
38.996
38.956
38.992
39.042
39.042
38.952
38.759
38.488
38.221
38.037
37.951
37.932
37.925
37.906
37.857
37.759
37.6
37.391
37.151
36.9
36.646
36.401
36.177
35.982
35.808
35.646
35.485
35.326
35.18
35.053
34.941
34.827
34.709
34.605
34.518
34.446
34.373
34.28
34.176
34.06
33.929
33.799
33.711
33.758
34.106
34.888
36.039
37.298
38.348
39.003
39.247
39.209
39.062
38.934
38.877
38.89
38.936
38.955
38.887
38.704
38.444
38.192
37.999
37.897
37.865
37.864
37.854
37.808
37.696
37.523
37.309
37.082
36.852
36.629
36.41
36.191
35.98
35.785
35.609
35.44
35.29
35.154
35.024
34.904
34.787
34.666
34.549
34.458
34.384
34.311
34.223
34.118
34.011
33.913
33.835
33.808
33.952
34.443
35.343
36.506
37.637
38.464
38.874
38.935
38.808
38.641
38.513
38.435
38.395
38.375
38.339
38.229
38.026
37.779
37.549
37.388
37.309
37.301
37.342
37.371
37.348
37.246
37.066
36.828
36.569
36.324
36.106
35.912
35.733
35.555
35.374
35.2
35.038
34.892
34.757
34.644
34.554
34.474
34.381
34.271
34.169
34.081
33.991
33.909
33.832
33.739
33.618
33.497
33.418
33.474
33.832
34.612
35.737
36.944
37.947
38.567
38.796
38.763
38.605
38.429
38.302
38.241
38.226
38.214
38.147
37.993
37.771
37.532
37.34
37.23
37.2
37.225
37.258
37.252
37.182
37.041
36.84
36.61
36.374
36.147
35.94
35.746
35.554
35.368
35.199
35.04
34.891
34.762
34.66
34.566
34.458
34.34
34.228
34.142
34.08
34.01
33.915
33.807
33.713
33.644
33.594
33.548
33.483
33.414
33.424
33.696
34.388
35.476
36.733
37.853
38.599
38.904
38.879
38.693
38.49
38.34
38.254
38.209
38.168
38.091
37.952
37.763
37.553
37.368
37.244
37.2
37.225
37.284
37.314
37.277
37.163
36.979
36.751
36.516
36.285
36.073
35.877
35.69
35.502
35.329
35.18
35.043
34.915
34.787
34.667
34.562
34.472
34.393
34.31
34.224
34.141
34.051
33.955
33.866
33.795
33.73
33.652
33.564
33.502
33.566
33.931
34.724
35.88
37.145
38.217
38.914
39.207
39.181
38.986
38.758
38.573
38.45
38.368
38.298
38.204
38.058
37.849
37.618
37.437
37.336
37.312
37.343
37.386
37.401
37.352
37.227
37.033
36.807
36.575
36.354
36.146
35.943
35.729
35.508
35.31
35.155
35.026
34.904
34.775
34.644
34.524
34.421
34.333
34.247
34.158
34.073
33.993
33.917
33.839
33.759
33.679
33.594
33.518
33.534
33.818
34.541
35.689
37.031
38.246
39.087
39.482
39.507
39.315
39.057
38.841
38.701
38.616
38.537
38.422
38.252
38.039
37.819
37.626
37.493
37.44
37.451
37.495
37.542
37.54
37.457
37.289
37.065
36.816
36.555
36.303
36.081
35.874
35.669
35.467
35.279
35.108
34.95
34.816
34.695
34.574
34.457
34.352
34.267
34.194
34.123
34.054
33.975
33.882
33.783
33.696
33.626
33.57
33.601
33.894
34.624
35.795
37.197
38.501
39.431
39.892
39.959
39.805
39.568
39.327
39.131
38.997
38.89
38.757
38.561
38.319
38.073
37.869
37.75
37.72
37.756
37.814
37.84
37.8
37.689
37.519
37.294
37.044
36.785
36.523
36.272
36.04
35.827
35.632
35.444
35.26
35.093
34.944
34.816
34.699
34.579
34.468
34.372
34.292
34.224
34.153
34.078
33.996
33.906
33.812
33.712
33.619
33.621
33.912
34.665
35.892
37.376
38.773
39.782
40.29
40.368
40.193
39.931
39.686
39.485
39.324
39.179
39.015
38.812
38.569
38.313
38.102
37.983
37.957
38.002
38.065
38.089
38.04
37.909
37.718
37.49
37.239
36.976
36.709
36.443
36.171
35.91
35.676
35.477
35.312
35.174
35.031
34.874
34.719
34.587
34.485
34.409
34.344
34.274
34.195
34.105
34.004
33.889
33.771
33.685
33.762
34.214
35.184
36.582
38.104
39.401
40.233
40.561
40.519
40.298
40.033
39.793
39.595
39.431
39.283
39.102
38.857
38.569
38.298
38.11
38.034
38.048
38.108
38.16
38.169
38.1
37.948
37.727
37.465
37.186
36.909
36.642
36.38
36.125
35.884
35.657
35.452
35.267
35.099
34.952
34.819
34.698
34.593
34.506
34.431
34.357
34.274
34.186
34.1
34.008
33.914
33.85
33.914
34.328
35.27
36.694
38.297
39.699
40.643
41.077
41.103
40.893
40.599
40.322
40.108
39.951
39.805
39.617
39.37
39.093
38.836
38.648
38.549
38.536
38.587
38.653
38.673
38.606
38.436
38.181
37.892
37.603
37.309
37.015
36.726
36.459
36.213
35.979
35.751
35.539
35.364
35.234
35.125
35.007
34.89
34.779
34.677
34.581
34.488
34.395
34.31
34.233
34.138
34.026
33.933
33.985
34.406
35.367
36.816
38.485
40.013
41.104
41.651
41.743
41.569
41.305
41.043
40.8
40.585
40.4
40.215
39.98
39.686
39.389
39.163
39.048
39.038
39.08
39.113
39.084
38.977
38.8
38.563
38.275
37.941
37.596
37.26
36.943
36.651
36.389
36.154
35.944
35.743
35.551
35.376
35.219
35.082
34.96
34.857
34.764
34.673
34.569
34.461
34.358
34.246
34.119
33.988
33.933
34.156
34.891
36.222
37.944
39.656
40.987
41.745
41.967
41.833
41.551
41.262
41.014
40.8
40.612
40.42
40.167
39.836
39.47
39.157
38.966
38.901
38.913
38.943
38.945
38.886
38.745
38.524
38.231
37.884
37.517
37.149
36.786
36.441
36.138
35.884
35.664
35.457
35.251
35.045
34.863
34.742
34.656
34.561
34.45
34.341
34.256
34.187
34.109
34.0
33.867
33.73
33.609
33.518
33.519
33.79
34.579
35.972
37.774
39.577
40.993
41.827
42.101
41.983
41.657
41.279
40.967
40.752
40.588
40.403
40.137
39.787
39.419
39.12
38.937
38.857
38.836
38.838
38.831
38.787
38.684
38.487
38.187
37.808
37.402
37.033
36.707
36.404
36.1
35.794
35.514
35.294
35.119
34.956
34.805
34.676
34.56
34.446
34.331
34.223
34.125
34.035
33.943
33.84
33.741
33.646
33.55
33.438
33.309
33.195
33.215
33.611
34.615
36.232
38.178
40.005
41.359
42.096
42.276
42.097
41.775
41.438
41.135
40.888
40.69
40.493
40.242
39.913
39.555
39.249
39.057
38.985
38.99
39.008
38.983
38.882
38.696
38.433
38.11
37.741
37.336
36.936
36.59
36.311
36.051
35.775
35.486
35.219
35.01
34.849
34.693
34.542
34.418
34.34
34.29
34.232
34.132
33.983
33.81
33.647
33.511
33.396
33.292
33.202
33.119
33.035
32.94
32.885
33.071
33.781
35.172
37.09
39.121
40.814
41.906
42.365
42.346
42.074
41.743
41.447
41.204
40.997
40.78
40.514
40.19
39.828
39.473
39.179
38.99
38.911
38.923
38.971
38.986
38.899
38.688
38.372
37.981
37.565
37.179
36.825
36.47
36.115
35.786
35.496
35.254
35.057
34.891
34.732
34.576
34.433
34.296
34.164
34.046
33.947
33.848
33.733
33.606
33.487
33.397
33.323
33.233
33.124
33.012
32.896
32.786
32.735
32.94
33.694
35.147
37.137
39.237
40.99
42.108
42.562
42.526
42.219
41.826
41.468
41.185
40.965
40.772
40.545
40.228
39.831
39.433
39.127
38.952
38.892
38.912
38.959
38.97
38.865
38.626
38.282
37.884
37.476
37.079
36.686
36.294
35.924
35.604
35.337
35.103
34.892
34.701
34.538
34.402
34.272
34.131
33.991
33.871
33.758
33.645
33.543
33.444
33.344
33.244
33.142
33.053
32.969
32.875
32.767
32.657
32.574
32.635
33.101
34.244
36.068
38.255
40.317
41.823
42.61
42.773
42.552
42.182
41.803
41.468
41.184
40.949
40.728
40.459
40.098
39.688
39.319
39.066
38.958
38.956
38.99
38.99
38.919
38.756
38.505
38.174
37.781
37.34
36.896
36.487
36.127
35.802
35.504
35.24
35.012
34.814
34.637
34.472
34.321
34.193
34.089
33.99
33.884
33.783
33.687
33.594
33.489
33.382
33.284
33.192
33.094
32.991
32.885
32.777
32.7
32.772
33.256
34.402
36.211
38.378
40.44
41.995
42.855
43.068
42.849
42.433
41.995
41.626
41.344
41.132
40.916
40.634
40.273
39.877
39.514
39.255
39.137
39.139
39.184
39.188
39.101
38.911
38.633
38.285
37.873
37.427
36.987
36.579
36.216
35.896
35.602
35.332
35.093
34.884
34.704
34.553
34.434
34.333
34.231
34.12
34.002
33.895
33.807
33.726
33.643
33.558
33.464
33.347
33.212
33.067
32.93
32.902
33.223
34.16
35.797
37.929
40.107
41.851
42.893
43.244
43.109
42.739
42.315
41.931
41.622
41.37
41.133
40.847
40.478
40.063
39.685
39.413
39.266
39.215
39.221
39.236
39.202
39.053
38.775
38.393
37.948
37.493
37.066
36.678
36.315
35.962
35.63
35.346
35.13
34.96
34.804
34.659
34.541
34.435
34.338
34.252
34.163
34.077
33.989
33.894
33.782
33.654
33.521
33.401
33.299
33.3
33.631
34.572
36.219
38.344
40.486
42.178
43.188
43.537
43.411
43.046
42.637
42.3
42.074
41.921
41.746
41.464
41.053
40.572
40.132
39.822
39.66
39.615
39.63
39.632
39.543
39.335
39.017
38.623
38.191
37.749
37.309
36.886
36.495
36.148
35.857
35.615
35.405
35.22
35.061
34.938
34.843
34.753
34.658
34.553
34.44
34.307
34.147
33.973
33.81
33.758
34.037
34.882
36.357
38.263
40.178
41.682
42.55
42.818
42.686
42.374
42.051
41.795
41.606
41.462
41.288
40.997
40.546
39.997
39.484
39.113
38.907
38.814
38.759
38.677
38.525
38.281
37.953
37.557
37.117
36.669
36.241
35.846
35.483
35.151
34.857
34.609
34.406
34.241
34.091
33.957
33.821
33.682
33.539
33.396
33.256
33.105
32.93
32.775
32.762
33.101
33.995
35.45
37.222
38.905
40.14
40.789
40.946
40.826
40.609
40.409
40.269
40.183
40.091
39.914
39.593
39.133
38.607
38.123
37.769
37.573
37.494
37.456
37.385
37.231
36.983
36.665
36.296
35.898
35.496
35.121
34.791
34.501
34.236
33.974
33.717
33.493
33.31
33.176
33.071
32.974
32.882
32.782
32.665
32.529
32.375
32.206
32.042
31.921
31.966
32.402
33.387
34.844
36.481
37.946
38.989
39.546
39.709
39.65
39.53
39.462
39.46
39.474
39.432
39.277
38.984
38.564
38.084
37.661
37.378
37.238
37.189
37.156
37.063
36.885
36.632
36.322
35.982
35.641
35.303
34.986
34.696
34.421
34.162
33.91
33.679
33.485
33.321
33.175
33.047
32.943
32.859
32.785
32.691
32.572
32.436
32.297
32.163
32.028
31.906
31.885
32.123
32.793
33.948
35.416
36.876
38.04
38.782
39.136
39.23
39.197
39.15
39.15
39.209
39.284
39.297
39.161
38.84
38.4
37.966
37.637
37.441
37.349
37.296
37.217
37.081
36.877
36.617
36.33
36.03
35.722
35.427
35.156
34.9
34.643
34.386
34.148
33.945
33.784
33.662
33.559
33.455
33.352
33.242
33.12
33.0
32.887
32.777
32.671
32.572
32.479
32.374
32.253
32.134
32.07
32.195
32.683
33.65
35.012
36.494
37.761
38.599
39.008
39.121
39.115
39.125
39.197
39.3
39.395
39.439
39.378
39.165
38.814
38.414
38.064
37.814
37.679
37.62
37.571
37.478
37.322
37.103
36.824
36.521
36.228
35.949
35.673
35.408
35.143
34.868
34.62
34.426
34.274
34.132
33.991
33.855
33.724
33.601
33.487
33.37
33.255
33.147
33.034
32.923
32.82
32.716
32.613
32.495
32.361
32.239
32.172
32.262
32.674
33.522
34.76
36.159
37.427
38.325
38.785
38.911
38.882
38.851
38.894
39.003
39.125
39.192
39.155
38.988
38.706
38.371
38.063
37.843
37.711
37.629
37.567
37.493
37.379
37.212
36.981
36.693
36.372
36.051
35.754
35.495
35.26
35.044
34.85
34.674
34.512
34.357
34.204
34.061
33.927
33.793
33.663
33.542
33.436
33.341
33.254
33.174
33.093
32.993
32.874
32.743
32.612
32.491
32.4
32.383
32.567
33.131
34.138
35.452
36.804
37.92
38.63
38.936
38.971
38.912
38.88
38.907
38.975
39.062
39.116
39.074
38.892
38.593
38.27
38.008
37.849
37.783
37.758
37.725
37.646
37.499
37.293
37.039
36.757
36.461
36.169
35.89
35.634
35.399
35.187
34.992
34.812
34.652
34.513
34.389
34.276
34.176
34.08
33.966
33.842
33.718
33.603
33.499
33.386
33.273
33.162
33.053
32.955
32.86
32.767
32.732
32.889
33.411
34.384
35.695
37.07
38.216
38.96
39.293
39.344
39.278
39.213
39.204
39.253
39.329
39.376
39.333
39.154
38.853
38.521
38.264
38.122
38.068
38.058
38.033
37.954
37.806
37.599
37.353
37.081
36.79
36.494
36.211
35.939
35.669
35.424
35.222
35.059
34.913
34.772
34.634
34.496
34.369
34.249
34.125
34.009
33.921
33.849
33.772
33.665
33.524
33.374
33.248
33.148
33.066
33.053
33.262
33.865
34.93
36.316
37.719
38.834
39.514
39.781
39.779
39.672
39.571
39.519
39.533
39.58
39.582
39.478
39.262
38.969
38.666
38.417
38.254
38.179
38.163
38.152
38.085
37.935
37.705
37.435
37.147
36.837
36.518
36.214
35.936
35.69
35.465
35.252
35.061
34.895
34.752
34.624
34.502
34.377
34.258
34.157
34.063
33.953
33.829
33.703
33.584
33.479
33.367
33.233
33.098
33.032
33.178
33.72
34.753
36.177
37.701
38.988
39.826
40.2
40.245
40.132
39.995
39.901
39.871
39.89
39.894
39.807
39.585
39.258
38.91
38.638
38.486
38.428
38.404
38.37
38.29
38.145
37.931
37.658
37.35
37.031
36.713
36.396
36.076
35.776
35.523
35.31
35.132
34.964
34.801
34.659
34.541
34.433
34.321
34.205
34.097
33.994
33.892
33.778
33.641
33.501
33.367
33.271
33.338
33.776
34.737
36.162
37.764
39.177
40.13
40.568
40.618
40.472
40.298
40.175
40.11
40.083
40.053
39.964
39.76
39.44
39.071
38.733
38.493
38.372
38.341
38.346
38.323
38.207
37.976
37.661
37.308
36.96
36.626
36.308
36.001
35.716
35.462
35.243
35.048
34.871
34.709
34.564
34.44
34.337
34.235
34.116
33.987
33.853
33.723
33.601
33.477
33.346
33.219
33.146
33.259
33.769
34.841
36.391
38.094
39.545
40.48
40.878
40.895
40.724
40.518
40.383
40.342
40.336
40.299
40.174
39.929
39.594
39.24
38.939
38.743
38.66
38.64
38.624
38.563
38.427
38.195
37.875
37.503
37.125
36.77
36.44
36.129
35.838
35.579
35.356
35.166
35.003
34.858
34.719
34.595
34.492
34.412
34.326
34.222
34.106
33.973
33.818
33.646
33.485
33.405
33.531
34.065
35.157
36.718
38.409
39.83
40.731
41.102
41.103
40.939
40.764
40.659
40.626
40.629
40.608
40.483
40.203
39.796
39.358
38.99
38.758
38.663
38.651
38.635
38.557
38.391
38.135
37.812
37.46
37.095
36.734
36.383
36.052
35.752
35.488
35.261
35.052
34.859
34.687
34.543
34.421
34.303
34.185
34.065
33.946
33.833
33.721
33.606
33.489
33.361
33.224
33.081
32.951
32.92
33.182
33.956
35.316
37.048
38.756
40.056
40.77
40.966
40.849
40.625
40.435
40.355
40.36
40.368
40.297
40.091
39.756
39.356
38.967
38.644
38.436
38.345
38.314
38.266
38.138
37.92
37.617
37.261
36.893
36.533
36.185
35.851
35.539
35.27
35.03
34.81
34.61
34.432
34.292
34.17
34.043
33.916
33.792
33.674
33.549
33.404
33.264
33.135
33.008
32.88
32.738
32.624
32.681
33.11
34.079
35.525
37.146
38.554
39.483
39.892
39.914
39.744
39.557
39.442
39.406
39.413
39.39
39.271
39.03
38.688
38.295
37.93
37.661
37.521
37.482
37.47
37.405
37.24
36.991
36.684
36.352
36.02
35.698
35.387
35.081
34.786
34.522
34.308
34.141
33.988
33.828
33.672
33.529
33.403
33.293
33.205
33.124
33.017
32.886
32.747
32.611
32.477
32.341
32.207
32.139
32.288
32.844
33.908
35.358
36.874
38.1
38.849
39.139
39.112
38.949
38.794
38.718
38.717
38.745
38.729
38.598
38.341
37.986
37.614
37.316
37.146
37.084
37.053
36.996
36.888
36.721
36.505
36.244
35.935
35.606
35.286
35.002
34.75
34.515
34.289
34.075
33.891
33.741
33.62
33.519
33.416
33.309
33.217
33.136
33.052
32.949
32.814
32.669
32.537
32.439
32.454
32.75
33.478
34.641
36.039
37.347
38.287
38.759
38.842
38.724
38.574
38.487
38.478
38.516
38.532
38.467
38.285
37.985
37.634
37.335
37.144
37.061
37.038
37.022
36.966
36.852
36.677
36.446
36.166
35.864
35.566
35.286
35.028
34.783
34.549
34.336
34.156
34.018
33.918
33.822
33.717
33.608
33.503
33.405
33.309
33.212
33.113
33.007
32.898
32.787
32.671
32.58
32.608
32.937
33.725
34.951
36.379
37.688
38.624
39.105
39.211
39.101
38.944
38.845
38.836
38.88
38.911
38.866
38.703
38.431
38.109
37.821
37.625
37.538
37.528
37.526
37.471
37.334
37.124
36.872
36.608
36.339
36.063
35.794
35.531
35.278
35.04
34.831
34.659
34.52
34.408
34.301
34.19
34.085
33.99
33.9
33.796
33.666
33.531
33.403
33.283
33.175
33.128
33.274
33.795
34.756
36.04
37.371
38.455
39.118
39.36
39.318
39.173
39.061
39.031
39.06
39.083
39.043
38.904
38.658
38.352
38.059
37.84
37.722
37.676
37.663
37.638
37.562
37.409
37.183
36.903
36.593
36.28
35.983
35.716
35.471
35.243
35.029
34.838
34.673
34.529
34.394
34.261
34.122
33.998
33.909
33.848
33.793
33.715
33.599
33.459
33.321
33.197
33.078
32.976
32.992
33.305
34.059
35.243
36.642
37.925
38.822
39.26
39.336
39.221
39.078
38.997
39.011
39.077
39.128
39.099
38.935
38.643
38.303
38.009
37.824
37.753
37.748
37.74
37.671
37.528
37.332
37.094
36.824
36.531
36.23
35.943
35.688
35.463
35.259
35.057
34.869
34.713
34.574
34.443
34.322
34.202
34.082
33.974
33.873
33.763
33.652
33.536
33.412
33.281
33.144
33.028
33.011
33.236
33.863
34.917
36.231
37.496
38.436
38.937
39.061
38.978
38.862
38.791
38.779
38.814
38.851
38.83
38.695
38.433
38.106
37.812
37.621
37.529
37.494
37.472
37.431
37.332
37.156
36.912
36.634
36.352
36.086
35.841
35.605
35.378
35.16
34.961
34.79
34.633
34.478
34.326
34.2
34.109
34.026
33.927
33.808
33.685
33.562
33.432
33.319
33.27
33.406
33.888
34.776
35.955
37.155
38.1
38.658
38.867
38.848
38.734
38.619
38.563
38.582
38.633
38.636
38.519
38.27
37.947
37.639
37.423
37.316
37.293
37.291
37.254
37.153
36.99
36.775
36.531
36.279
36.023
35.77
35.516
35.266
35.036
34.833
34.663
34.52
34.389
34.268
34.151
34.049
33.96
33.871
33.778
33.671
33.547
33.418
33.293
33.195
33.178
33.373
33.948
34.955
36.236
37.487
38.432
38.956
39.115
39.058
38.945
38.894
38.927
38.996
39.038
39.0
38.842
38.566
38.243
37.957
37.764
37.681
37.675
37.673
37.627
37.512
37.337
37.105
36.84
36.551
36.259
35.994
35.762
35.554
35.356
35.162
34.976
34.818
34.691
34.586
34.489
34.405
34.337
34.269
34.174
34.052
33.927
33.809
33.694
33.593
33.599
33.882
34.58
35.669
36.936
38.096
38.926
39.342
39.424
39.338
39.246
39.24
39.32
39.427
39.473
39.397
39.188
38.881
38.547
38.277
38.119
38.057
38.029
37.983
37.879
37.715
37.501
37.255
36.984
36.699
36.416
36.148
35.903
35.679
35.471
35.276
35.102
34.959
34.849
34.751
34.645
34.537
34.437
34.331
34.213
34.076
33.943
33.826
33.728
33.718
33.937
34.539
35.544
36.77
37.923
38.77
39.232
39.372
39.329
39.248
39.219
39.265
39.357
39.421
39.378
39.189
38.872
38.515
38.206
38.008
37.928
37.918
37.9
37.824
37.672
37.454
37.187
36.902
36.615
36.336
36.079
35.842
35.628
35.438
35.264
35.112
34.981
34.86
34.744
34.63
34.506
34.376
34.248
34.114
33.987
33.873
33.783
33.788
34.04
34.677
35.689
36.883
37.972
38.738
39.129
39.232
39.193
39.143
39.146
39.206
39.286
39.32
39.244
39.021
38.686
38.329
38.042
37.884
37.833
37.818
37.784
37.7
37.555
37.354
37.105
36.826
36.541
36.266
36.001
35.744
35.502
35.288
35.099
34.934
34.806
34.711
34.626
34.545
34.462
34.365
34.253
34.133
34.003
33.867
33.732
33.607
33.537
33.643
34.084
34.937
36.106
37.339
38.351
38.984
39.258
39.306
39.275
39.253
39.29
39.389
39.497
39.544
39.452
39.191
38.822
38.457
38.19
38.057
38.032
38.032
37.977
37.841
37.637
37.382
37.102
36.83
36.574
36.323
36.063
35.802
35.562
35.349
35.161
35.007
34.883
34.775
34.681
34.594
34.502
34.392
34.266
34.137
34.002
33.859
33.719
33.592
33.523
33.626
34.057
34.893
36.035
37.23
38.198
38.787
39.037
39.079
39.034
39.0
39.03
39.112
39.198
39.21
39.09
38.834
38.488
38.143
37.885
37.738
37.672
37.638
37.574
37.447
37.257
37.022
36.758
36.48
36.194
35.902
35.631
35.398
35.2
35.023
34.848
34.67
34.497
34.345
34.229
34.139
34.067
33.991
33.897
33.793
33.679
33.558
33.431
33.301
33.174
33.062
32.992
33.026
33.301
33.958
34.994
36.205
37.303
38.076
38.461
38.542
38.487
38.425
38.425
38.501
38.614
38.689
38.654
38.479
38.198
37.88
37.606
37.422
37.323
37.277
37.238
37.167
37.054
36.891
36.669
36.394
36.094
35.798
35.532
35.315
35.139
34.978
34.809
34.636
34.477
34.335
34.208
34.091
33.984
33.882
33.781
33.677
33.574
33.472
33.372
33.267
33.157
33.041
32.925
32.841
32.869
33.141
33.782
34.788
35.978
37.057
37.798
38.149
38.217
38.15
38.074
38.053
38.099
38.184
38.256
38.242
38.087
37.815
37.502
37.251
37.117
37.083
37.09
37.076
37.008
36.88
36.7
36.476
36.226
35.974
35.729
35.494
35.281
35.086
34.909
34.747
34.59
34.442
34.315
34.214
34.123
34.021
33.91
33.804
33.712
33.633
33.549
33.455
33.359
33.255
33.146
33.046
33.011
33.164
33.639
34.489
35.611
36.748
37.636
38.142
38.302
38.257
38.172
38.132
38.148
38.201
38.26
38.266
38.172
37.967
37.704
37.451
37.264
37.167
37.157
37.178
37.163
37.081
36.927
36.72
36.477
36.221
35.974
35.747
35.546
35.358
35.171
34.995
34.837
34.7
34.578
34.458
34.335
34.227
34.142
34.071
33.996
33.919
33.834
33.733
33.609
33.479
33.371
33.331
33.464
33.924
34.782
35.929
37.091
37.999
38.526
38.706
38.667
