36.253
36.255
36.272
36.269
36.239
36.208
36.189
36.197
36.254
36.4
36.66
36.992
37.293
37.464
37.456
37.289
37.036
36.771
36.554
36.405
36.312
36.27
36.253
36.243
36.25
36.281
36.324
36.367
36.411
36.457
36.496
36.496
36.451
36.37
36.273
36.191
36.131
36.086
36.052
36.029
36.02
36.018
36.012
36.009
36.013
36.006
35.985
35.957
35.94
35.93
35.91
35.886
35.888
35.97
36.188
36.551
36.967
37.302
37.455
37.409
37.214
36.949
36.7
36.52
36.418
36.38
36.371
36.372
36.377
36.392
36.412
36.438
36.476
36.521
36.552
36.557
36.543
36.519
36.483
36.436
36.379
36.32
36.279
36.251
36.223
36.191
36.166
36.157
36.163
36.175
36.181
36.177
36.168
36.164
36.166
36.157
36.137
36.132
36.186
36.35
36.64
37.019
37.386
37.618
37.659
37.527
37.29
37.04
36.837
36.702
36.641
36.639
36.655
36.666
36.671
36.677
36.686
36.703
36.742
36.792
36.828
36.828
36.793
36.743
36.694
36.647
36.595
36.532
36.471
36.436
36.425
36.436
36.458
36.484
36.505
36.509
36.498
36.475
36.451
36.428
36.405
36.405
36.462
36.603
36.843
37.152
37.463
37.683
37.742
37.635
37.416
37.162
36.934
36.773
36.7
36.688
36.688
36.68
36.675
36.696
36.748
36.825
36.91
36.974
36.996
36.972
36.914
36.831
36.743
36.677
36.632
36.599
36.572
36.56
36.565
36.574
36.577
36.563
36.537
36.519
36.514
36.509
36.497
36.473
36.455
36.483
36.624
36.904
37.271
37.62
37.828
37.84
37.681
37.418
37.138
36.909
36.76
36.69
36.672
36.67
36.67
36.686
36.725
36.787
36.857
36.906
36.915
36.897
36.868
36.84
36.799
36.73
36.643
36.56
36.496
36.458
36.435
36.417
36.4
36.378
36.366
36.37
36.377
36.38
36.376
36.359
36.332
36.308
36.297
36.341
36.497
36.795
37.209
37.614
37.869
37.906
37.746
37.484
37.214
37.005
36.886
36.846
36.855
36.876
36.882
36.864
36.838
36.824
36.833
36.858
36.894
36.926
36.94
36.94
36.916
36.857
36.766
36.676
36.61
36.578
36.561
36.547
36.527
36.512
36.502
36.491
36.472
36.455
36.452
36.453
36.439
36.413
36.38
36.341
36.303
36.297
36.378
36.601
36.956
37.346
37.652
37.792
37.739
37.532
37.26
37.016
36.855
36.781
36.769
36.775
36.769
36.75
36.727
36.719
36.73
36.76
36.8
36.831
36.84
36.823
36.779
36.719
36.665
36.631
36.605
36.576
36.544
36.518
36.503
36.495
36.487
36.479
36.472
36.473
36.483
36.484
36.471
36.45
36.417
36.39
36.371
36.361
36.387
36.485
36.689
37.007
37.362
37.633
37.739
37.657
37.448
37.192
36.955
36.787
36.705
36.678
36.67
36.66
36.64
36.634
36.654
36.7
36.759
36.806
36.819
36.795
36.744
36.683
36.614
36.529
36.436
36.355
36.299
36.276
36.267
36.258
36.239
36.216
36.2
36.198
36.201
36.193
36.175
36.159
36.149
36.128
36.095
36.062
36.043
36.065
36.179
36.435
36.818
37.208
37.467
37.523
37.381
37.115
36.828
36.601
36.477
36.445
36.466
36.496
36.491
36.456
36.418
36.401
36.413
36.443
36.469
36.487
36.492
36.468
36.41
36.333
36.263
36.214
36.175
36.14
36.112
36.099
36.098
36.094
36.077
36.055
36.043
36.051
36.064
36.07
36.071
36.075
36.078
36.057
36.006
35.957
35.945
35.973
36.011
36.05
36.152
36.407
36.816
37.255
37.556
37.632
37.511
37.274
37.009
36.803
36.687
36.638
36.619
36.617
36.621
36.619
36.604
36.585
36.576
36.585
36.603
36.623
36.636
36.636
36.628
36.603
36.557
36.499
36.437
36.375
36.328
36.308
36.3
36.293
36.29
36.29
36.286
36.272
36.256
36.248
36.245
36.242
36.244
36.258
36.264
36.236
36.178
36.125
36.112
36.137
36.22
36.41
36.739
37.144
37.496
37.673
37.632
37.43
37.168
36.93
36.757
36.661
36.63
36.629
36.635
36.637
36.63
36.624
36.647
36.711
36.786
36.834
36.833
36.789
36.723
36.644
36.565
36.49
36.415
36.348
36.299
36.265
36.245
36.231
36.219
36.209
36.205
36.202
36.202
36.205
36.2
36.179
36.149
36.115
36.085
36.072
36.082
36.146
36.323
36.633
37.01
37.321
37.467
37.425
37.239
36.984
36.731
36.532
36.419
36.377
36.367
36.364
36.355
36.342
36.338
36.366
36.427
36.489
36.532
36.548
36.526
36.47
36.387
36.297
36.215
36.144
36.087
36.049
36.024
36.011
36.013
36.026
36.039
36.048
36.049
36.047
36.049
36.057
36.055
36.041
36.019
35.977
35.934
35.945
36.067
36.34
36.74
37.155
37.452
37.564
37.495
37.293
37.029
36.775
36.593
36.51
36.505
36.553
36.602
36.609
36.586
36.558
36.551
36.574
36.617
36.659
36.685
36.678
36.635
36.579
36.522
36.457
36.386
36.308
36.245
36.224
36.24
36.258
36.253
36.225
36.202
36.2
36.215
36.231
36.236
36.225
36.2
36.173
36.156
36.171
36.262
36.47
36.801
37.192
37.522
37.684
37.642
37.449
37.186
36.934
36.752
36.661
36.646
36.662
36.655
36.625
36.597
36.59
36.61
36.65
36.694
36.729
36.747
36.742
36.71
36.649
36.573
36.502
36.44
36.382
36.343
36.328
36.327
36.327
36.312
36.295
36.286
36.283
36.289
36.289
36.274
36.248
36.224
36.201
36.183
36.174
36.19
36.26
36.444
36.762
37.147
37.473
37.625
37.56
37.339
37.051
36.784
36.6
36.509
36.484
36.491
36.487
36.475
36.468
36.471
36.482
36.509
36.552
36.594
36.62
36.61
36.549
36.464
36.38
36.313
36.259
36.209
36.167
36.139
36.119
36.105
36.096
36.086
36.073
36.062
36.059
36.059
36.056
36.053
36.041
36.016
35.978
35.939
35.907
35.913
36.002
36.225
36.569
36.948
37.238
37.345
37.255
37.023
36.745
36.507
36.349
36.282
36.281
36.306
36.322
36.316
36.286
36.26
36.258
36.286
36.329
36.361
36.356
36.328
36.29
36.254
36.217
36.182
36.146
36.101
36.065
36.048
36.032
36.014
36.001
35.988
35.98
35.984
35.982
35.976
35.98
35.988
35.995
35.998
35.995
35.987
35.98
35.966
35.94
35.91
35.877
35.856
35.883
36.0
36.258
36.661
37.108
37.425
37.506
37.362
37.087
36.799
36.581
36.46
36.427
36.449
36.484
36.503
36.499
36.471
36.434
36.411
36.417
36.442
36.469
36.485
36.472
36.436
36.385
36.325
36.266
36.219
36.181
36.156
36.142
36.131
36.112
36.089
36.076
36.08
36.1
36.116
36.116
36.099
36.077
36.059
36.054
36.061
36.063
36.057
36.047
36.026
35.99
35.962
35.971
36.037
36.198
36.482
36.841
37.166
37.353
37.349
37.178
36.916
36.657
36.472
36.378
36.339
36.331
36.338
36.352
36.376
36.409
36.441
36.472
36.514
36.558
36.583
36.57
36.517
36.433
36.346
36.262
36.183
36.117
36.076
36.061
36.06
36.057
36.049
36.042
36.032
36.018
36.01
36.012
36.014
36.017
36.025
36.028
36.014
35.983
35.946
35.927
35.949
36.067
36.34
36.735
37.119
37.354
37.38
37.237
37.019
36.8
36.614
36.472
36.399
36.386
36.399
36.413
36.414
36.404
36.392
36.4
36.442
36.498
36.541
36.553
36.531
36.482
36.42
36.354
36.291
36.23
36.18
36.139
36.108
36.093
36.095
36.105
36.107
36.098
36.082
36.072
36.07
36.074
36.081
36.093
36.107
36.112
36.1
36.068
36.027
35.997
36.011
36.095
36.282
36.6
37.008
37.382
37.592
37.585
37.404
37.151
36.904
36.707
36.578
36.525
36.531
36.551
36.555
36.541
36.531
36.536
36.556
36.593
36.635
36.66
36.66
36.641
36.614
36.568
36.498
36.427
36.378
36.341
36.31
36.286
36.269
36.262
36.256
36.25
36.248
36.249
36.254
36.259
36.269
36.272
36.223
36.12
36.014
35.964
35.979
36.02
36.048
36.062
36.107
36.255
36.544
36.934
37.306
37.542
37.604
37.51
37.305
37.046
36.797
36.606
36.5
36.471
36.483
36.5
36.52
36.55
36.596
36.657
36.73
36.796
36.845
36.876
36.868
36.811
36.721
36.621
36.535
36.48
36.44
36.406
36.389
36.381
36.368
36.35
36.333
36.325
36.324
36.325
36.32
36.302
36.274
36.241
36.209
36.187
36.211
36.345
36.624
36.99
37.327
37.533
37.564
37.432
37.193
36.917
36.671
36.505
36.428
36.422
36.451
36.435
36.331
36.179
36.077
36.097
36.215
36.347
36.432
36.466
36.464
36.439
36.388
36.313
36.223
36.148
36.105
36.088
36.083
36.08
36.078
36.081
36.093
36.103
36.109
36.114
36.112
36.102
36.097
36.092
36.087
36.103
36.176
36.351
36.651
37.031
37.381
37.596
37.624
37.487
37.259
37.031
36.85
36.733
36.689
36.701
36.723
36.715
36.685
36.663
36.67
36.702
36.737
36.776
36.816
36.832
36.811
36.76
36.69
36.613
36.538
36.48
36.446
36.43
36.413
36.388
36.361
36.352
36.352
36.353
36.359
36.37
36.382
36.379
36.355
36.321
36.288
36.274
36.292
36.378
36.593
36.947
37.356
37.686
37.833
37.776
37.576
37.33
37.111
36.961
36.886
36.863
36.845
36.82
36.794
36.776
36.78
36.807
36.842
36.875
36.894
36.888
36.855
36.808
36.76
36.714
36.663
36.602
36.534
36.478
36.451
36.449
36.453
36.449
36.424
36.388
36.365
36.364
36.365
36.352
36.335
36.323
36.321
36.327
36.331
36.355
36.461
36.705
37.053
37.404
37.634
37.662
37.517
37.283
37.04
36.842
36.706
36.627
36.581
36.556
36.542
36.531
36.528
36.548
36.594
36.663
36.726
36.75
36.715
36.634
36.544
36.464
36.399
36.33
36.258
36.193
36.151
36.133
36.124
36.106
36.075
36.037
36.011
35.995
35.98
35.967
35.942
35.904
35.868
35.859
35.913
36.07
36.356
36.73
37.081
37.291
37.296
37.119
36.851
36.585
36.374
36.242
36.171
36.135
36.108
36.085
36.058
36.036
36.046
36.093
36.149
36.173
36.152
36.108
36.065
36.022
35.958
35.874
35.786
35.709
35.653
35.593
35.559
35.588
35.639
35.652
35.603
35.514
35.432
35.399
35.414
35.428
35.413
35.384
35.371
35.38
35.414
35.486
35.644
35.924
36.302
36.685
36.962
37.064
36.991
36.794
36.555
36.359
36.256
36.235
36.26
36.29
36.29
36.251
36.212
36.207
36.221
36.232
36.245
36.256
36.257
36.226
36.16
36.072
35.994
35.947
35.934
35.939
35.94
35.918
35.893
35.876
35.865
35.859
35.851
35.837
35.814
35.792
35.789
35.805
35.819
35.813
35.786
35.759
35.749
35.748
35.751
35.76
35.785
35.878
36.108
36.487
36.925
37.277
37.417
37.326
37.093
36.83
36.615
36.486
36.425
36.414
36.428
36.441
36.444
36.438
36.432
36.433
36.46
36.507
36.544
36.555
36.534
36.493
36.437
36.372
36.302
36.234
36.179
36.149
36.143
36.137
36.12
36.105
36.103
36.107
36.104
36.09
36.069
36.05
36.032
36.008
35.993
35.994
35.987
35.96
35.93
35.955
36.106
36.407
36.795
37.145
37.34
37.329
37.151
36.895
36.651
36.465
36.353
36.289
36.247
36.216
36.197
36.191
36.204
36.236
36.28
36.319
36.342
36.348
36.331
36.272
36.173
36.069
35.992
35.945
35.913
35.889
35.86
35.816
35.774
35.751
35.736
35.722
35.714
35.717
35.722
35.713
35.691
35.67
35.662
35.654
35.647
35.686
35.848
36.173
36.595
36.978
37.202
37.222
37.075
36.843
36.613
36.431
36.324
36.282
36.284
36.299
36.309
36.307
36.299
36.292
36.302
36.338
36.377
36.392
36.384
36.362
36.333
36.294
36.238
36.167
36.097
36.058
36.05
36.054
36.059
36.059
36.051
36.036
36.03
36.044
36.071
36.091
36.085
36.057
36.032
36.042
36.086
36.166
36.353
36.701
37.166
37.58
37.771
37.705
37.493
37.261
37.079
36.962
36.902
36.885
36.891
36.894
36.879
36.852
36.822
36.804
36.8
36.806
36.817
36.82
36.806
36.774
36.736
36.69
36.634
36.58
36.541
36.519
36.501
36.477
36.449
36.427
36.42
36.427
36.436
36.438
36.427
36.396
36.357
36.332
36.328
36.355
36.466
36.719
37.097
37.498
37.795
37.893
37.802
37.603
37.386
37.211
37.1
37.048
37.04
37.048
37.046
37.027
36.994
36.957
36.936
36.94
36.968
36.997
37.009
36.999
36.968
36.92
36.867
36.811
36.752
36.701
36.669
36.657
36.659
36.652
36.63
36.602
36.578
36.564
36.558
36.55
36.528
36.494
36.461
36.443
36.436
36.442
36.509
36.702
37.035
37.426
37.735
37.851
37.771
37.566
37.331
37.143
37.028
36.973
36.953
36.939
36.918
36.898
36.879
36.862
36.857
36.879
36.926
36.971
36.987
36.962
36.904
36.835
36.765
36.709
36.665
36.628
36.596
36.573
36.564
36.561
36.554
36.546
36.54
36.538
36.529
36.51
36.481
36.446
36.423
36.427
36.468
36.574
36.795
37.127
37.48
37.722
37.781
37.668
37.453
37.216
37.022
36.903
36.849
36.824
36.8
36.771
36.746
36.735
36.753
36.802
36.876
36.937
36.954
36.933
36.894
36.837
36.757
36.667
36.586
36.536
36.504
36.481
36.477
36.488
36.498
36.496
36.489
36.487
36.485
36.475
36.454
36.434
36.426
36.454
36.566
36.807
37.145
37.477
37.704
37.752
37.624
37.395
37.149
36.946
36.811
36.732
36.688
36.652
36.611
36.569
36.535
36.52
36.526
36.556
36.605
36.662
36.696
36.681
36.628
36.558
36.485
36.412
36.345
36.298
36.273
36.261
36.263
36.27
36.262
36.232
36.199
36.177
36.163
36.157
36.178
36.264
36.448
36.743
37.105
37.425
37.607
37.623
37.503
37.315
37.124
36.972
36.868
36.805
36.759
36.715
36.667
36.614
36.572
36.555
36.561
36.583
36.624
36.665
36.687
36.679
36.636
36.556
36.453
36.353
36.27
36.211
36.183
36.171
36.16
36.14
36.116
36.098
36.093
36.109
36.164
36.288
36.522
36.859
37.215
37.467
37.535
37.435
37.232
36.986
36.751
36.565
36.455
36.412
36.4
36.386
36.369
36.361
36.366
36.391
36.443
36.518
36.581
36.597
36.563
36.5
36.433
36.377
36.331
36.273
36.199
36.135
36.103
36.102
36.114
36.116
36.103
36.074
36.033
36.01
36.034
36.14
36.376
36.751
37.178
37.505
37.616
37.503
37.253
36.976
36.742
36.577
36.484
36.438
36.414
36.384
36.337
36.289
36.261
36.248
36.24
36.243
36.25
36.251
36.23
36.189
36.125
36.046
35.975
35.924
35.891
35.859
35.822
35.791
35.773
35.763
35.754
35.738
35.714
35.684
35.661
35.652
35.679
35.795
36.062
36.46
36.87
37.145
37.205
37.069
36.816
36.542
36.325
36.196
36.15
36.153
36.159
36.134
36.087
36.046
36.02
36.015
36.029
36.048
36.054
36.05
36.04
36.021
35.982
35.922
35.852
35.787
35.738
35.702
35.687
35.693
35.707
35.705
35.693
35.682
35.676
35.664
35.642
35.62
35.599
35.585
35.615
35.756
36.061
36.49
36.91
37.177
37.219
37.066
36.807
36.541
36.34
36.224
36.185
36.196
36.207
36.196
36.164
36.124
36.092
36.079
36.083
36.107
36.158
36.217
36.204
36.07
35.876
35.741
35.73
35.791
35.83
35.817
35.784
35.775
35.788
35.791
35.767
35.74
35.734
35.758
35.803
35.843
35.86
35.856
35.841
35.825
35.808
35.797
35.824
35.937
36.201
36.613
37.058
37.393
37.521
37.426
37.17
36.863
36.594
36.416
36.338
36.338
36.369
36.382
36.37
36.364
36.376
36.393
36.404
36.422
36.45
36.478
36.455
36.356
36.215
36.093
36.036
36.027
36.026
36.018
36.011
36.016
36.026
36.032
36.034
36.029
36.024
36.026
36.034
36.045
36.059
36.075
36.098
36.118
36.125
36.116
36.106
36.118
36.193
36.386
36.731
37.167
37.546
37.73
37.683
37.468
37.186
36.916
36.696
36.537
36.442
36.409
36.415
36.435
36.469
36.524
36.595
36.671
36.746
36.808
36.845
36.846
36.816
36.771
36.722
36.668
36.598
36.524
36.485
36.469
36.413
36.305
36.182
36.111
36.132
36.212
36.298
36.359
36.404
36.45
36.492
36.514
36.501
36.458
36.439
36.506
36.712
37.047
37.438
37.76
37.905
37.84
37.609
37.308
37.042
36.864
36.763
36.701
36.648
36.591
36.551
36.548
36.589
36.667
36.765
36.858
36.926
36.965
36.98
36.982
36.957
36.91
36.855
36.792
36.729
36.685
36.659
36.642
36.62
36.587
36.539
36.49
36.467
36.476
36.497
36.517
36.566
36.7
36.958
37.31
37.651
37.858
37.851
37.652
37.355
37.054
36.806
36.622
36.492
36.409
36.365
36.361
36.397
36.468
36.571
36.693
36.806
36.887
36.937
36.949
36.905
36.808
36.683
36.57
36.498
36.468
36.464
36.461
36.45
36.442
36.449
36.462
36.455
36.418
36.379
36.363
36.372
36.416
36.547
36.84
37.266
37.681
37.937
37.956
37.764
37.456
37.131
36.866
36.696
36.623
36.616
36.64
36.674
36.698
36.713
36.732
36.761
36.809
36.879
36.941
36.962
36.948
36.904
36.831
36.737
36.638
36.552
36.507
36.501
36.505
36.497
36.482
36.484
36.518
36.562
36.574
36.544
36.498
36.523
36.716
37.099
37.564
37.932
38.078
37.986
37.736
37.438
37.177
36.978
36.843
36.776
36.772
36.8
36.826
36.834
36.846
36.881
36.933
36.987
37.028
37.037
37.008
36.958
36.896
36.823
36.754
36.701
36.664
36.634
36.612
36.603
36.601
36.598
36.598
36.589
36.566
36.535
36.5
36.477
36.498
36.629
36.924
37.345
37.747
37.997
38.024
37.841
37.527
37.195
36.931
36.764
36.675
36.642
36.636
36.637
36.647
36.69
36.78
36.888
36.995
37.091
37.149
37.139
37.071
36.972
36.863
36.765
36.693
36.65
36.623
36.606
36.602
36.598
36.587
36.585
36.592
36.602
36.612
36.622
36.617
36.588
36.551
36.564
36.721
37.066
37.513
37.89
38.061
37.995
37.753
37.432
37.12
36.869
36.7
36.603
36.553
36.53
36.528
36.562
36.643
36.767
36.914
37.047
37.129
37.143
37.102
37.024
36.937
36.871
36.829
36.795
36.753
36.708
36.676
36.668
36.677
36.686
36.69
36.69
36.686
36.671
36.653
36.632
36.598
36.571
36.6
36.761
37.08
37.489
37.849
38.027
37.968
37.723
37.386
37.055
36.799
36.638
36.554
36.513
36.501
36.521
36.584
36.684
36.809
36.94
37.068
37.175
37.221
37.188
37.084
36.947
36.824
36.745
36.702
36.679
36.66
36.637
36.625
36.63
36.635
36.642
36.645
36.643
36.637
36.631
36.623
36.59
36.54
36.529
36.644
36.936
37.351
37.754
37.998
38.011
37.818
37.511
37.187
36.917
36.73
36.62
36.557
36.523
36.514
36.549
36.644
36.786
36.952
37.108
37.212
37.234
37.182
37.101
37.017
36.945
36.878
36.809
36.743
36.7
36.689
36.698
36.702
36.691
36.679
36.676
36.677
36.673
36.667
36.658
36.637
36.605
36.592
36.666
36.898
37.275
37.677
37.945
37.985
37.809
37.512
37.196
36.926
36.721
36.584
36.504
36.462
36.461
36.505
36.59
36.713
36.855
36.999
37.11
37.159
37.15
37.103
37.027
36.926
36.828
36.757
36.719
36.7
36.684
36.67
36.662
36.652
36.633
36.617
36.62
36.64
36.666
36.679
36.665
36.628
36.609
36.684
36.906
37.259
37.634
37.885
37.921
37.754
37.456
37.13
36.865
36.693
36.599
36.542
36.503
36.493
36.531
36.638
36.802
36.97
37.09
37.156
37.182
37.168
37.114
37.034
36.946
36.865
36.797
36.749
36.721
36.71
36.713
36.728
36.744
36.76
36.771
36.771
36.762
36.74
36.712
36.676
36.665
36.753
36.995
37.357
37.727
37.971
38.015
37.868
37.593
37.278
37.0
36.804
36.698
36.657
36.648
36.665
36.717
36.809
36.922
37.042
37.157
37.252
37.304
37.296
37.239
37.14
37.021
36.907
36.821
36.781
36.772
36.773
36.769
36.771
36.785
36.808
36.828
36.833
36.831
36.82
36.793
36.77
36.813
36.995
37.328
37.723
38.04
38.17
38.078
37.814
37.483
37.181
36.96
36.825
36.756
36.73
36.734
36.77
36.85
36.972
37.12
37.268
37.384
37.437
37.42
37.351
37.259
37.166
37.091
37.034
36.985
36.947
36.925
36.926
36.94
36.948
36.942
36.935
36.934
36.93
36.911
36.885
36.891
36.995
37.251
37.624
37.987
38.206
38.216
38.039
37.75
37.438
37.174
37.014
36.955
36.949
36.961
36.991
37.057
37.167
37.301
37.434
37.542
37.605
37.612
37.563
37.471
37.359
37.263
37.206
37.177
37.155
37.129
37.105
37.093
37.102
37.13
37.159
37.175
37.168
37.131
37.076
37.033
37.054
37.202
37.494
37.852
38.147
38.276
38.206
37.987
37.713
37.465
37.295
37.202
37.164
37.161
37.184
37.24
37.329
37.437
37.543
37.637
37.705
37.732
37.715
37.655
37.557
37.449
37.358
37.298
37.27
37.268
37.27
37.214
37.084
36.947
36.872
36.885
36.95
37.009
37.025
36.991
36.947
36.958
37.077
37.33
37.67
37.987
38.165
38.152
37.98
37.73
37.482
37.292
37.174
37.112
37.098
37.117
37.161
37.236
37.338
37.446
37.535
37.59
37.604
37.577
37.513
37.431
37.346
37.272
37.221
37.195
37.179
37.165
37.147
37.131
37.121
37.119
37.116
37.109
37.107
37.114
37.114
37.097
37.074
37.053
37.048
37.091
37.242
37.53
37.891
38.191
38.323
38.259
38.041
37.754
37.497
37.327
37.241
37.224
37.246
37.284
37.338
37.414
37.505
37.596
37.68
37.743
37.767
37.746
37.689
37.612
37.526
37.442
37.377
37.343
37.335
37.329
37.315
37.302
37.301
37.305
37.306
37.303
37.296
37.289
37.287
37.286
37.274
37.247
37.213
37.179
37.158
37.201
37.373
37.678
38.036
38.316
38.415
38.306
38.054
37.759
37.506
37.339
37.256
37.235
37.244
37.27
37.324
37.418
37.537
37.657
37.752
37.804
37.799
37.742
37.654
37.552
37.463
37.407
37.373
37.352
37.341
37.336
37.328
37.318
37.304
37.291
37.276
37.267
37.266
37.264
37.258
37.245
37.229
37.206
37.173
37.136
37.115
37.161
37.335
37.649
38.033
38.354
38.488
38.401
38.16
37.877
37.638
37.475
37.379
37.326
37.309
37.332
37.387
37.478
37.598
37.719
37.816
37.862
37.854
37.805
37.738
37.669
37.603
37.54
37.478
37.424
37.388
37.365
37.343
37.334
37.333
37.322
37.298
37.265
37.234
37.218
37.224
37.237
37.25
37.245
37.213
37.16
37.105
37.075
37.117
37.282
37.582
37.964
38.301
38.465
38.414
38.191
37.886
37.6
37.396
37.287
37.253
37.269
37.311
37.366
37.428
37.512
37.617
37.733
37.825
37.854
37.808
37.709
37.597
37.504
37.43
37.371
37.324
37.285
37.257
37.235
37.216
37.202
37.182
37.155
37.131
37.116
37.106
37.099
37.089
37.065
37.039
37.018
37.001
36.929
36.784
36.668
36.725
37.022
37.473
37.901
38.151
38.168
37.994
37.719
37.422
37.16
36.979
36.894
36.875
36.892
36.932
36.99
37.074
37.18
37.282
37.354
37.369
37.32
37.229
37.124
37.021
36.94
36.88
36.835
36.804
36.786
36.765
36.745
36.724
36.711
36.709
36.705
36.698
36.689
36.675
36.653
36.625
36.605
36.598
36.595
36.583
36.561
36.549
36.602
36.801
37.159
37.584
37.915
38.038
37.949
37.71
37.413
37.143
36.944
36.825
36.773
36.771
36.813
36.881
36.966
37.068
37.192
37.306
37.377
37.39
37.348
37.27
37.182
37.095
37.017
36.954
36.91
36.884
36.875
36.88
36.893
36.902
36.898
36.881
36.853
36.821
36.795
36.778
36.764
36.748
36.74
36.745
36.751
36.736
36.709
36.703
36.778
37.008
37.381
37.788
38.085
38.173
38.037
37.75
37.427
37.16
36.993
36.912
36.888
36.896
36.925
36.98
37.064
37.174
37.3
37.415
37.487
37.502
37.464
37.387
37.296
37.207
37.126
37.062
37.017
36.997
36.992
36.998
37.014
37.024
37.015
36.991
36.959
36.926
36.904
36.897
36.9
36.907
36.909
36.906
36.894
36.865
36.828
36.823
36.94
37.225
37.609
37.961
38.16
38.146
37.949
37.662
37.377
37.157
37.029
36.967
36.941
36.945
36.987
37.076
37.204
37.345
37.47
37.556
37.584
37.551
37.471
37.366
37.264
37.187
37.139
37.119
37.116
37.117
37.104
37.086
37.071
37.066
37.063
37.049
37.029
37.022
37.023
37.021
37.008
36.985
36.962
36.939
36.909
36.875
36.875
36.977
37.224
37.581
37.928
38.137
38.144
37.972
37.694
37.409
37.185
37.05
36.999
36.993
37.006
37.032
37.093
37.209
37.363
37.518
37.629
37.661
37.616
37.527
37.429
37.343
37.273
37.212
37.158
37.127
37.117
37.106
37.095
37.094
37.101
37.105
37.092
37.066
37.044
37.035
37.035
37.043
37.033
36.991
36.942
36.91
36.92
37.018
37.255
37.6
37.94
38.148
38.165
38.007
37.748
37.488
37.294
37.172
37.103
37.065
37.053
37.067
37.122
37.228
37.37
37.506
37.602
37.63
37.6
37.531
37.442
37.349
37.263
37.186
37.125
37.098
37.1
37.114
37.118
37.106
37.09
37.082
37.074
37.06
37.043
37.021
36.991
36.964
36.941
36.906
36.863
36.85
36.917
37.113
37.436
37.779
38.003
38.031
37.878
37.621
37.344
37.116
36.967
36.884
36.848
36.84
36.858
36.926
37.046
37.193
37.327
37.411
37.428
37.378
37.286
37.183
37.084
36.999
36.932
36.887
36.862
36.842
36.807
36.76
36.724
36.706
36.701
36.699
36.691
36.668
36.632
36.596
36.576
36.568
36.555
36.529
36.503
36.535
36.707
37.04
37.439
37.747
37.841
37.719
37.46
37.162
36.906
36.729
36.63
36.589
36.586
36.624
36.702
36.822
36.962
37.08
37.156
37.186
37.165
37.092
36.985
36.872
36.776
36.707
36.674
36.665
36.65
36.627
36.61
36.605
36.61
36.613
36.607
36.589
36.57
36.554
36.535
36.512
36.491
36.465
36.433
36.437
36.553
36.818
37.183
37.521
37.71
37.69
37.495
37.214
36.937
36.721
36.586
36.519
36.502
36.52
36.571
36.655
36.767
36.892
36.991
37.037
37.027
36.968
36.872
36.765
36.667
36.592
36.543
36.513
36.496
36.481
36.463
36.445
36.43
36.417
36.407
36.395
36.383
36.372
36.356
36.341
36.327
36.309
36.276
36.253
36.306
36.504
36.849
37.241
37.535
37.628
37.507
37.247
36.95
36.698
36.534
36.459
36.44
36.452
36.489
36.557
36.662
36.802
36.944
37.037
37.058
37.016
36.933
36.831
36.732
36.637
36.548
36.48
36.44
36.425
36.426
36.416
36.387
36.353
36.328
36.319
36.314
36.305
36.29
36.268
36.242
36.216
36.188
36.166
36.174
36.268
36.504
36.864
37.23
37.456
37.47
37.298
37.023
36.739
36.513
36.367
36.298
36.283
36.304
36.36
36.451
36.576
36.713
36.83
36.91
36.926
36.866
36.763
36.656
36.563
36.487
36.426
36.379
36.346
36.323
36.309
36.3
36.289
36.27
36.25
36.242
36.243
36.243
36.239
36.229
36.204
36.175
36.153
36.14
36.15
36.234
36.45
36.8
37.186
37.456
37.511
37.367
37.098
36.798
36.552
36.407
36.345
36.33
36.335
36.37
36.452
36.573
36.708
36.829
36.908
36.921
36.881
36.808
36.716
36.622
36.538
36.47
36.42
36.394
36.391
36.399
36.402
36.398
36.387
36.373
36.361
36.351
36.339
36.329
36.328
36.324
36.304
36.27
36.24
36.24
36.295
36.444
36.723
37.093
37.434
37.611
37.565
37.336
37.024
36.745
36.555
36.453
36.408
36.385
36.378
36.409
36.491
36.622
36.77
36.893
36.956
36.945
36.874
36.757
36.622
36.506
36.428
36.383
36.358
36.344
36.329
36.316
36.314
36.323
36.324
36.303
36.259
36.214
36.191
36.192
36.196
36.18
36.138
36.084
36.042
36.029
36.076
36.24
36.538
36.903
37.221
37.381
37.341
37.137
36.859
36.594
36.395
36.282
36.234
36.222
36.231
36.277
36.378
36.529
36.692
36.825
36.892
36.879
36.801
36.69
36.575
36.476
36.405
36.36
36.335
36.316
36.297
36.28
36.266
36.256
36.256
36.262
36.262
36.25
36.227
36.208
36.208
36.214
36.212
36.195
36.184
36.217
36.348
36.611
36.968
37.319
37.538
37.543
37.356
37.065
36.78
36.572
36.458
36.411
36.396
36.404
36.453
36.559
36.716
36.883
37.017
37.081
37.068
37.004
36.916
36.821
36.725
36.632
36.563
36.529
36.519
36.517
36.515
36.513
36.516
36.513
36.506
36.499
36.494
36.491
36.489
36.485
36.468
36.441
36.42
36.424
36.494
36.696
37.039
37.422
37.693
37.759
37.616
37.344
37.041
36.779
36.614
36.552
36.543
36.548
36.578
36.653
36.785
36.947
37.086
37.163
37.165
37.122
37.046
36.892
36.663
36.45
36.357
36.408
36.519
36.605
36.634
36.627
36.627
36.649
36.676
36.685
36.672
36.651
36.644
36.659
36.676
36.665
36.64
36.641
36.727
36.954
37.309
37.681
37.921
37.952
37.794
37.528
37.244
37.011
36.863
36.796
36.782
36.799
36.85
36.948
37.076
37.204
37.303
37.354
37.342
37.275
37.18
37.078
36.99
36.926
36.877
36.834
36.792
36.765
36.761
36.768
36.779
36.781
36.764
36.742
36.731
36.73
36.738
36.747
36.744
36.722
36.69
36.686
36.786
37.038
37.407
37.767
37.98
37.983
37.805
37.538
37.271
37.057
36.925
36.877
36.883
36.915
36.971
37.054
37.149
37.236
37.301
37.335
37.324
37.254
37.148
37.039
36.951
36.893
36.857
36.827
36.796
36.759
36.726
36.71
36.71
36.713
36.698
36.676
36.669
36.675
36.686
36.689
36.671
36.642
36.612
36.586
36.596
36.706
36.975
37.358
37.725
37.941
37.937
37.743
37.451
37.172
36.977
36.887
36.876
36.894
36.925
36.976
37.055
37.166
37.287
37.384
37.422
37.387
37.295
37.18
37.074
37.0
36.947
36.897
36.853
36.824
36.82
36.821
36.809
36.781
36.743
36.717
36.704
36.703
36.709
36.708
36.695
36.674
36.656
36.651
36.647
36.633
36.639
36.738
36.996
37.382
37.757
37.972
37.966
37.771
37.476
37.188
36.985
36.889
36.866
36.87
36.885
36.913
36.967
37.043
37.124
37.184
37.199
37.159
37.077
36.98
36.895
36.837
36.802
36.78
36.761
36.745
36.733
36.727
36.718
36.696
36.661
36.622
36.592
36.588
36.602
36.621
36.638
36.641
36.621
36.581
36.538
36.5
36.492
36.56
36.772
37.149
37.578
37.886
37.97
37.837
37.575
37.288
37.053
36.902
36.841
36.844
36.874
36.91
36.962
37.028
37.099
37.155
37.174
37.159
37.123
37.074
37.016
36.945
36.866
36.789
36.725
36.682
36.662
36.652
36.639
36.62
36.596
36.568
36.537
36.516
36.508
36.506
36.503
36.496
36.485
36.473
36.451
36.417
36.378
36.368
36.473
36.748
37.152
37.552
37.796
37.808
37.616
37.313
37.011
36.795
36.691
36.673
36.699
36.732
36.773
36.826
36.884
36.933
36.981
37.013
37.015
36.977
36.901
36.8
36.695
36.606
36.546
36.515
36.502
36.495
36.481
36.462
36.448
36.443
36.447
36.449
36.443
36.439
36.442
36.446
36.438
36.42
36.404
36.393
36.38
36.365
36.403
36.579
36.91
37.306
37.615
37.718
37.59
37.303
36.979
36.72
36.571
36.517
36.527
36.563
36.612
36.676
36.749
36.826
36.894
36.948
36.977
36.958
36.884
36.778
36.678
36.605
36.559
36.527
36.5
36.479
36.472
36.474
36.476
36.465
36.447
36.439
36.441
36.446
36.451
36.451
36.445
36.432
36.416
36.407
36.403
36.396
36.414
36.532
36.795
37.156
37.482
37.65
37.604
37.381
37.072
36.786
36.593
36.496
36.477
36.511
36.571
36.646
36.737
36.837
36.929
36.995
37.016
36.992
36.936
36.862
36.782
36.701
36.632
36.59
36.569
36.554
36.537
36.522
36.51
36.505
36.501
36.498
36.495
36.492
36.494
36.463
36.349
36.195
36.091
36.102
36.2
36.314
36.433
36.624
36.932
37.31
37.624
37.745
37.639
37.376
37.066
36.828
36.71
36.683
36.698
36.73
36.784
36.861
36.947
37.039
37.129
37.191
37.211
37.179
37.097
36.996
36.899
36.826
36.786
36.767
36.758
36.76
36.762
36.755
36.738
36.723
36.719
36.713
36.7
36.683
36.665
36.648
36.635
36.622
36.615
36.617
36.617
36.613
36.649
36.795
37.08
37.435
37.72
37.821
37.709
37.446
37.141
36.898
36.758
36.706
36.699
36.71
36.74
36.806
36.918
37.055
37.18
37.253
37.25
37.185
37.088
36.987
36.901
36.842
36.802
36.777
36.77
36.765
36.758
36.752
36.748
36.742
36.741
36.734
36.709
36.678
36.654
36.651
36.664
36.678
36.675
36.648
36.595
36.558
36.622
36.852
37.227
37.614
37.847
37.847
37.659
37.38
37.103
36.91
36.821
36.807
36.826
36.851
36.885
36.954
37.06
37.178
37.275
37.323
37.315
37.257
37.169
37.07
36.986
36.922
36.872
36.842
36.832
36.833
36.839
36.848
36.85
36.823
36.781
36.752
36.742
36.751
36.767
36.774
36.754
36.703
36.641
36.592
36.578
36.647
36.836
37.139
37.482
37.741
37.825
37.719
37.487
37.224
37.014
36.9
36.872
36.903
36.963
37.021
37.076
37.136
37.208
37.284
37.341
37.353
37.312
37.223
37.11
37.004
36.919
36.857
36.829
36.834
36.856
36.867
36.856
36.833
36.808
36.781
36.757
36.757
36.791
36.842
36.878
36.873
36.828
36.768
36.722
36.721
36.808
37.025
37.336
37.636
37.791
37.74
37.52
37.239
37.004
36.871
36.836
36.855
36.89
36.924
36.979
37.068
37.179
37.28
37.332
37.321
37.255
37.154
37.038
36.933
36.854
36.808
36.798
36.804
36.795
36.778
36.767
36.763
36.761
36.757
36.745
36.727
36.711
36.706
36.703
36.695
36.673
36.644
36.651
36.757
37.022
37.417
37.803
38.027
38.025
37.83
37.544
37.278
37.103
37.033
37.049
37.108
37.165
37.206
37.234
37.257
37.287
37.32
37.344
37.347
37.328
37.28
37.213
37.142
37.077
37.014
36.961
36.917
36.889
36.883
36.887
36.888
36.879
36.853
36.817
36.784
36.773
36.778
36.783
36.778
36.752
36.715
36.7
36.782
37.026
37.418
37.834
38.107
38.139
37.955
37.667
37.405
37.243
37.195
37.241
37.319
37.372
37.379
37.358
37.337
37.335
37.358
37.382
37.384
37.352
37.285
37.206
37.137
37.087
37.053
37.029
36.999
36.958
36.919
36.899
36.888
36.872
36.839
36.799
36.772
36.756
36.743
36.731
36.72
36.709
36.681
36.642
36.611
36.628
36.753
37.04
37.467
37.885
38.115
38.088
37.872
37.595
37.374
37.263
37.256
37.315
37.375
37.39
37.363
37.32
37.288
37.288
37.324
37.367
37.38
37.35
37.28
37.191
37.101
37.024
36.964
36.928
36.91
36.9
36.89
36.879
36.864
36.846
36.822
36.8
36.786
36.777
36.77
36.759
36.748
36.742
36.74
36.733
36.72
36.696
36.662
36.627
36.615
36.705
36.971
37.397
37.851
38.149
38.2
38.03
37.751
37.49
37.331
37.284
37.311
37.364
37.397
37.386
37.348
37.312
37.302
37.318
37.351
37.374
37.359
37.301
37.213
37.115
37.03
36.97
36.937
36.922
36.919
36.911
36.886
36.851
36.825
36.806
36.778
36.747
36.721
36.711
36.717
36.728
36.726
36.694
36.645
36.607
36.592
36.592
36.584
36.557
36.521
36.499
36.55
36.754
37.13
37.567
37.902
38.009
37.891
37.637
37.367
37.165
37.065
37.056
37.097
37.135
37.152
37.161
37.181
37.216
37.244
37.253
37.234
37.195
37.139
37.069
36.999
36.931
36.87
36.822
36.793
36.778
36.766
36.759
36.752
36.747
36.74
36.724
36.696
36.668
36.653
36.649
36.646
36.643
36.636
36.621
36.596
36.57
36.544
36.52
36.493
36.463
36.442
36.445
36.512
36.709
37.063
37.482
37.804
37.911
37.781
37.498
37.196
36.97
36.86
36.855
36.899
36.945
36.971
36.983
37.008
37.053
37.104
37.138
37.135
37.086
37.005
36.923
36.856
36.808
36.778
36.753
36.731
36.721
36.717
36.712
36.696
36.668
36.647
36.639
36.637
36.63
36.614
36.59
36.563
36.536
36.512
36.492
36.479
36.468
36.456
36.437
36.402
36.363
36.316
36.272
36.268
36.363
36.605
36.98
37.377
37.638
37.669
37.491
37.196
36.899
36.685
36.592
36.601
36.659
36.729
36.792
36.85
36.913
36.977
37.034
37.066
37.057
37.015
36.956
36.886
36.813
36.755
36.731
36.738
36.752
36.759
36.751
36.734
36.724
36.721
36.711
36.691
36.667
36.655
36.65
36.637
36.615
36.589
36.564
36.541
36.516
36.481
36.429
36.368
36.318
36.316
36.408
36.608
36.869
37.09
37.171
37.078
36.855
36.588
36.354
36.192
36.091
36.025
35.978
35.959
35.977
36.03
36.114
36.2
36.255
36.214
36.062
35.884
35.778
35.771
35.79
35.766
35.694
35.62
35.582
35.574
35.566
35.532
35.476
35.415
35.369
35.338
35.31
35.277
35.237
35.191
35.145
35.102
35.055
35.0
34.961
34.991
35.143
35.398
35.658
35.793
35.736
35.511
35.192
34.863
34.579
34.367
34.218
34.118
34.052
34.011
33.994
34.011
34.056
34.109
34.134
34.108
34.02
33.885
33.734
33.589
33.46
33.354
33.273
33.211
33.167
33.135
33.114
33.092
33.062
33.031
33.005
32.979
32.948
32.948
33.04
33.274
33.638
34.023
34.284
34.325
34.159
33.883
33.6
33.381
33.246
33.185
33.171
33.18
33.196
33.207
33.233
33.294
33.386
33.47
33.516
33.51
33.463
33.392
33.311
33.241
33.191
33.165
33.157
33.161
33.171
33.188
33.201
33.21
33.21
33.2
33.193
33.253
33.471
33.868
34.356
34.766
34.962
34.912
34.693
34.417
34.184
34.052
34.024
34.062
34.11
34.121
34.085
34.012
33.943
33.912
33.928
33.978
34.041
34.078
34.067
34.011
33.942
33.877
33.822
33.784
33.768
33.764
33.76
33.747
33.731
33.729
33.747
33.782
33.798
33.775
33.731
33.697
33.724
33.892
34.276
34.824
35.348
35.659
35.693
35.522
35.287
35.107
35.027
35.04
35.107
35.177
35.206
35.168
35.067
34.937
34.831
34.789
34.824
34.91
34.991
35.029
35.009
34.932
34.837
34.763
34.712
34.668
34.627
34.58
34.533
34.5
34.478
34.461
34.451
34.449
34.445
34.429
34.408
34.39
34.378
34.378
34.384
34.389
34.373
34.342
34.319
34.36
34.561
34.985
35.561
36.106
36.443
36.509
36.384
36.213
36.099
36.077
36.125
36.198
36.244
36.231
36.151
36.013
35.85
35.703
35.614
35.598
35.629
35.667
35.68
35.666
35.63
35.567
35.485
35.403
35.335
35.277
35.224
35.182
35.142
35.089
35.023
34.961
34.915
34.885
34.864
34.829
34.761
34.679
34.605
34.537
34.482
34.44
34.403
34.37
34.338
34.304
34.272
34.241
34.213
34.194
34.175
34.153
34.123
34.119
34.221
34.534
35.078
35.723
36.253
36.505
36.47
36.275
36.075
35.969
35.983
36.077
36.182
36.243
36.224
36.12
35.953
35.774
35.638
35.58
35.599
35.656
35.706
35.717
35.688
35.63
35.545
35.448
35.361
35.302
35.277
35.266
35.247
35.207
35.155
35.105
35.074
35.063
35.062
35.059
35.044
35.017
34.995
34.977
34.95
34.919
34.892
34.871
34.849
34.824
34.798
34.767
34.728
34.671
34.612
34.59
34.677
34.971
35.487
36.09
36.578
36.814
36.799
36.64
36.472
36.383
36.382
36.44
36.515
36.563
36.53
36.397
36.203
36.017
35.896
35.863
35.903
35.969
36.009
35.995
35.94
35.868
35.785
35.695
35.609
35.537
35.482
35.432
35.384
35.344
35.312
35.284
35.25
35.213
35.181
35.157
35.135
35.113
35.085
35.045
34.99
34.936
34.894
34.869
34.858
34.851
34.838
34.815
34.785
34.741
34.675
34.607
34.559
34.572
34.733
35.114
35.666
36.228
36.614
36.728
36.612
36.403
36.225
36.149
36.172
36.243
36.307
36.306
36.216
36.05
35.848
35.667
35.553
35.52
35.557
35.621
35.669
35.68
35.64
35.554
35.436
35.322
35.238
35.19
35.169
35.154
35.128
35.089
35.042
34.998
34.963
34.945
34.932
34.917
34.904
34.9
34.892
34.869
34.845
34.83
34.809
34.778
34.745
34.714
34.693
34.688
34.696
34.703
34.694
34.666
34.62
34.571
34.558
34.634
34.889
35.371
35.991
36.559
36.902
36.962
36.811
36.583
36.403
36.327
36.348
36.426
36.507
36.532
36.464
36.31
36.116
35.948
35.856
35.855
35.917
35.988
36.027
36.011
35.942
35.838
35.718
35.607
35.53
35.482
35.442
35.408
35.377
35.343
35.307
35.278
35.251
35.229
35.217
35.206
35.181
35.144
35.11
35.08
35.052
35.025
35.003
34.987
34.973
34.959
34.947
34.932
34.907
34.874
34.84
34.812
34.808
34.887
35.152
35.629
36.206
36.692
36.948
36.944
36.753
36.499
36.313
36.251
36.294
36.389
36.467
36.47
36.378
36.216
36.04
35.905
35.845
35.851
35.898
35.944
35.954
35.913
35.835
35.741
35.651
35.579
35.521
35.469
35.424
35.39
35.369
35.348
35.32
35.288
35.255
35.229
35.21
35.187
35.158
35.129
35.104
35.081
35.053
35.014
34.972
34.936
34.912
34.894
34.867
34.84
34.83
34.842
34.853
34.844
34.819
34.782
34.751
34.758
34.862
35.159
35.671
36.274
36.758
36.971
36.909
36.684
36.439
36.279
36.247
36.316
36.425
36.519
36.55
36.504
36.405
36.302
36.236
36.228
36.28
36.36
36.429
36.447
36.398
36.305
36.215
36.147
36.09
36.043
36.008
35.974
35.938
35.904
35.87
35.838
35.815
35.799
35.79
35.778
35.755
35.719
35.68
35.652
35.646
35.652
35.649
35.633
35.615
35.599
35.587
35.58
35.569
35.545
35.505
35.387
35.193
35.012
34.966
35.084
35.295
35.571
35.974
36.512
37.071
37.463
37.561
37.388
37.081
36.805
36.66
36.639
36.685
36.74
36.761
36.725
36.654
36.577
36.511
36.469
36.461
36.487
36.527
36.552
36.536
36.477
36.392
36.294
36.199
36.122
36.066
36.021
35.976
35.927
35.876
35.834
35.8
35.768
35.737
35.716
35.704
35.681
35.641
35.595
35.555
35.529
35.514
35.505
35.486
35.453
35.412
35.374
35.342
35.307
35.271
35.244
35.253
35.386
35.731
36.25
36.777
37.134
37.228
37.075
36.792
36.514
36.327
36.256
36.28
36.353
36.415
36.414
36.336
36.208
36.076
35.984
35.955
35.977
36.011
36.021
36.0
35.954
35.892
35.826
35.762
35.707
35.653
35.595
35.534
35.479
35.437
35.412
35.396
35.379
35.361
35.345
35.335
35.329
35.327
35.325
35.323
35.31
35.28
35.246
35.228
35.225
35.223
35.221
35.223
35.229
35.228
35.21
35.183
35.153
35.143
35.213
35.46
35.933
36.536
37.082
37.4
37.422
37.206
36.891
36.617
36.455
36.417
36.471
36.565
36.635
36.638
36.572
36.468
36.377
36.335
36.34
36.374
36.41
36.425
36.414
36.376
36.32
36.255
36.193
36.135
36.088
36.059
36.044
36.026
36.006
35.99
35.977
35.962
35.941
35.917
35.901
35.886
35.87
35.862
35.86
35.845
35.812
35.78
35.77
35.777
35.779
35.765
35.735
35.69
35.645
35.625
35.677
35.892
36.327
36.903
37.424
37.708
37.693
37.458
37.141
36.869
36.699
36.633
36.641
36.687
36.727
36.732
36.695
36.631
36.574
36.552
36.565
36.595
36.624
36.629
36.597
36.531
36.441
36.336
36.237
36.162
36.11
36.075
36.049
36.031
36.018
36.001
35.978
35.949
35.915
35.887
35.873
35.857
35.818
35.765
35.722
35.702
35.706
35.718
35.706
35.66
35.596
35.547
35.541
35.611
35.835
36.264
36.821
37.329
37.622
37.641
37.444
37.158
36.897
36.724
36.651
36.661
36.721
36.773
36.77
36.703
36.605
36.529
36.507
36.534
36.588
36.641
36.663
36.644
36.597
36.531
36.454
36.374
36.302
36.244
36.203
36.171
36.142
36.118
36.097
36.075
36.06
36.051
36.043
36.028
36.007
35.984
35.962
35.95
35.946
35.934
35.912
35.888
35.871
35.862
35.852
35.828
35.794
35.763
35.754
35.822
36.062
36.532
37.142
37.686
37.978
37.968
37.74
37.44
37.184
37.029
36.979
37.002
37.057
37.103
37.102
37.043
36.947
36.864
36.832
36.844
36.873
36.887
36.88
36.85
36.803
36.74
36.668
36.595
36.531
36.483
36.441
36.404
36.379
36.357
36.34
36.325
36.311
36.292
36.265
36.242
36.225
36.202
36.175
36.147
36.121
36.099
36.088
36.077
36.064
36.048
36.025
35.988
35.943
35.912
35.943
36.11
36.479
37.021
37.585
37.973
38.07
37.917
37.637
37.351
37.131
36.997
36.942
36.944
36.968
36.982
36.963
36.917
36.866
36.828
36.818
36.839
36.874
36.891
36.868
36.807
36.711
36.602
36.495
36.398
36.323
36.271
36.234
36.21
36.19
36.166
36.143
36.117
36.087
36.059
36.028
35.992
35.948
35.906
35.873
35.848
35.825
35.799
35.775
35.752
35.732
35.704
35.66
35.618
35.618
35.733
36.054
36.579
37.168
37.622
37.818
37.743
37.489
37.19
36.94
36.781
36.716
36.722
36.762
36.791
36.767
36.694
36.603
36.528
36.49
36.485
36.495
36.501
36.488
36.452
36.39
36.319
36.26
36.207
36.156
36.1
36.046
35.999
35.969
35.941
35.921
35.917
35.909
35.889
35.865
35.845
35.829
35.81
35.798
35.792
35.785
35.768
35.745
35.724
35.708
35.696
35.689
35.684
35.677
35.662
35.632
35.593
35.566
35.59
35.751
36.137
36.725
37.355
37.823
38.01
37.917
37.649
37.338
37.084
36.934
36.883
36.896
36.939
36.977
36.971
36.912
36.834
36.78
36.773
36.8
36.829
36.853
36.862
36.843
36.792
36.72
36.636
36.552
36.484
36.435
36.402
36.369
36.337
36.308
36.28
36.255
36.23
36.204
36.186
36.177
36.17
36.159
36.13
36.091
36.048
36.011
35.995
36.0
36.017
36.027
36.013
35.969
35.829
35.601
35.402
35.398
35.691
36.242
36.893
37.456
37.793
37.865
37.722
37.449
37.145
36.894
36.752
36.726
36.764
36.807
36.812
36.778
36.737
36.724
36.757
36.822
36.884
36.923
36.927
36.884
36.801
36.694
36.58
36.476
36.394
36.337
36.302
36.273
36.244
36.207
36.167
36.135
36.12
36.119
36.113
36.087
36.06
36.046
36.033
36.014
35.993
35.976
35.958
35.943
35.926
35.895
35.856
35.816
35.798
35.847
36.048
36.451
36.997
37.509
37.812
37.835
37.639
37.336
37.028
36.795
36.667
36.62
36.622
36.637
36.624
36.568
36.483
36.4
36.344
36.331
36.352
36.378
36.383
36.354
36.29
36.209
36.13
36.066
36.009
35.957
35.909
35.866
35.829
35.798
35.775
35.758
35.744
35.729
35.71
35.688
35.674
35.659
35.639
35.618
35.606
35.603
35.604
35.61
35.612
35.606
35.592
35.573
35.549
35.519
35.495
35.519
35.671
36.031
36.579
37.163
37.585
37.739
37.636
37.381
37.091
36.856
36.714
36.66
36.668
36.703
36.732
36.726
36.689
36.638
36.589
36.561
36.56
36.579
36.599
36.608
36.597
36.563
36.512
36.454
36.39
36.334
36.295
36.262
36.236
36.214
36.198
36.186
36.174
36.164
36.151
36.136
36.118
36.105
36.102
36.112
36.127
36.136
36.121
36.09
36.055
36.031
36.013
35.992
35.962
35.92
35.871
35.824
35.822
35.939
36.253
36.773
37.37
37.852
38.075
38.019
37.773
37.458
37.173
36.968
36.852
36.802
36.788
36.782
36.769
36.749
36.736
36.742
36.774
36.821
36.862
36.878
36.868
36.833
36.774
36.697
36.6
36.497
36.413
36.356
36.322
36.3
36.279
36.255
36.23
36.209
36.184
36.157
36.133
36.116
36.105
36.088
36.068
36.043
36.003
35.95
35.888
35.825
35.778
35.765
35.846
36.102
36.549
37.085
37.538
37.775
37.76
37.551
37.252
36.968
36.76
36.641
36.59
36.579
36.573
36.547
36.499
36.447
36.406
36.385
36.378
36.38
36.378
36.361
36.327
36.278
36.223
36.161
36.085
36.001
35.93
35.887
35.867
35.854
35.839
35.821
35.795
35.764
35.744
35.726
35.702
35.667
35.642
35.641
35.658
35.664
35.651
35.636
35.63
35.633
35.627
35.602
35.573
35.586
35.725
36.074
36.626
37.243
37.722
37.927
37.846
37.58
37.274
37.021
36.854
36.774
36.77
36.803
36.823
36.807
36.755
36.698
36.67
36.68
36.722
36.766
36.783
36.767
36.731
36.68
36.624
36.57
36.522
36.484
36.45
36.419
36.392
36.371
36.353
36.342
36.335
36.312
36.284
36.283
36.327
36.389
36.424
36.429
36.43
36.445
36.46
36.454
36.413
36.341
36.271
36.224
36.22
36.309
36.563
37.006
37.54
37.981
38.19
38.146
37.926
37.637
37.372
37.182
37.078
37.033
37.006
36.973
36.928
36.894
36.896
36.936
36.989
37.037
37.069
37.067
37.03
36.964
36.879
36.785
36.682
36.583
36.498
36.434
36.387
36.362
36.354
36.34
36.31
36.267
36.228
36.193
36.162
36.128
36.09
36.051
36.012
35.977
35.951
35.937
35.919
35.891
35.864
35.89
36.059
36.43
36.966
37.506
37.866
37.957
37.814
37.539
37.245
37.011
36.867
36.799
36.774
36.764
36.745
36.707
36.663
36.622
36.585
36.558
36.558
36.584
36.608
36.604
36.561
36.491
36.409
36.338
36.282
36.247
36.215
36.172
36.123
36.08
36.042
36.018
36.011
36.009
36.006
35.989
35.963
35.941
35.928
35.916
35.905
35.905
35.916
35.913
35.892
35.853
35.801
35.752
35.753
35.884
36.223
36.756
37.354
37.845
38.098
38.091
37.894
37.616
37.364
37.188
37.098
37.089
37.128
37.167
37.172
37.128
37.064
37.017
37.003
37.029
37.077
37.112
37.107
37.055
36.964
36.871
36.799
36.741
36.693
36.644
36.584
36.513
36.451
36.413
36.395
36.39
36.394
36.399
36.4
36.397
36.391
36.373
36.338
36.301
36.272
36.252
36.23
36.199
36.16
36.118
36.092
36.129
36.307
36.676
37.186
37.677
37.989
38.047
37.897
37.631
37.334
37.066
36.87
36.757
36.704
36.674
36.641
36.601
36.577
36.592
36.652
36.739
36.815
36.85
36.828
36.76
36.67
36.577
36.488
36.404
36.328
36.271
36.23
36.189
36.152
36.117
36.091
36.069
36.042
36.005
35.966
35.928
35.885
35.836
35.78
35.726
35.677
35.626
35.569
35.515
35.482
35.509
35.672
36.034
36.564
37.124
37.533
37.688
37.607
37.386
37.124
36.889
36.707
36.581
36.505
36.472
36.467
36.453
36.419
36.385
36.374
36.392
36.424
36.456
36.468
36.45
36.404
36.344
36.272
36.193
36.106
36.018
35.951
35.915
35.899
35.887
35.869
35.842
35.815
35.801
35.805
35.809
35.796
35.758
35.718
35.696
35.689
35.691
35.691
35.681
35.66
35.627
35.587
35.555
35.56
35.675
35.99
36.512
37.128
37.652
37.939
37.951
37.765
37.487
37.214
37.005
36.879
36.831
36.839
36.863
36.87
36.854
36.83
36.813
36.816
36.84
36.877
36.908
36.913
36.888
36.833
36.761
36.686
36.614
36.552
36.5
36.46
36.426
36.394
36.373
36.352
36.325
36.307
36.318
36.335
36.264
36.094
35.939
35.926
36.039
36.169
36.226
36.2
36.142
36.111
36.118
36.165
36.299
36.598
37.071
37.612
38.047
38.249
38.203
37.986
37.696
37.411
37.181
37.022
36.921
36.857
36.808
36.769
36.742
36.736
36.76
36.811
36.868
36.903
36.895
36.85
36.782
36.702
36.612
36.512
36.407
36.303
36.214
36.149
36.104
36.059
36.021
35.987
35.951
35.909
35.866
35.834
35.817
35.802
35.784
35.756
35.715
35.657
35.593
35.541
35.525
35.583
35.784
36.185
36.743
37.3
37.688
37.827
37.735
37.492
37.205
36.955
36.776
36.679
36.644
36.631
36.618
36.595
36.561
36.534
36.522
36.529
36.552
36.585
36.615
36.625
36.599
36.537
36.45
36.35
36.257
36.178
36.122
36.08
36.044
36.013
35.981
35.937
35.884
35.833
35.798
35.792
35.804
35.816
35.816
35.796
35.763
35.733
35.723
35.721
35.716
35.702
35.677
35.651
35.674
35.832
36.213
36.795
37.437
37.957
38.226
38.224
38.032
37.761
37.512
37.347
37.266
37.239
37.239
37.23
37.2
37.169
37.147
37.139
37.154
37.199
37.26
37.307
37.314
37.277
37.205
37.116
37.023
36.939
36.87
36.803
36.74
36.685
36.64
36.605
36.569
36.524
36.471
36.422
36.39
36.377
36.366
36.335
36.273
36.181
36.089
36.02
35.984
35.987
36.057
36.254
36.633
37.159
37.712
38.138
38.334
38.303
38.121
37.88
37.656
37.479
37.344
37.246
37.18
37.123
37.058
36.989
36.936
36.911
36.911
36.922
36.934
36.933
36.908
36.845
36.748
36.637
36.524
36.416
36.322
36.249
36.194
36.151
36.105
36.055
36.007
35.966
35.931
35.892
35.844
35.797
35.766
35.777
35.816
35.826
35.779
35.697
35.611
35.53
35.474
35.5
35.691
36.111
36.712
37.335
37.786
37.969
37.906
37.694
37.452
37.252
37.107
37.017
36.969
36.949
36.928
36.879
36.793
36.697
36.634
36.614
36.616
36.623
36.627
36.617
36.584
36.525
36.45
36.375
36.304
36.239
36.179
36.118
36.059
35.997
35.944
35.908
35.887
35.862
35.834
35.808
35.788
35.772
35.745
35.71
35.682
35.662
35.646
35.631
35.623
35.609
35.58
35.536
35.483
35.438
35.439
35.563
35.896
36.451
37.132
37.765
38.186
38.316
38.208
37.985
37.756
37.573
37.45
37.385
37.359
37.35
37.33
37.278
37.213
37.162
37.148
37.166
37.198
37.228
37.236
37.206
37.143
37.055
36.954
36.859
36.771
36.686
36.611
36.556
36.516
36.474
36.415
36.348
36.291
36.255
36.232
36.202
36.162
36.123
36.092
36.061
36.026
35.992
35.954
35.904
35.831
35.745
35.68
35.656
35.705
35.904
36.31
36.891
37.504
37.968
38.17
38.12
37.907
37.638
37.389
37.194
37.056
36.958
36.878
36.808
36.748
36.705
36.703
36.74
36.798
36.853
36.88
36.858
36.787
36.682
36.555
36.422
36.293
36.176
36.072
35.975
35.885
35.811
35.755
35.711
35.671
35.621
35.559
35.497
35.453
35.419
35.373
35.314
35.259
35.217
35.186
35.155
35.112
35.062
35.014
35.002
35.084
35.343
35.834
36.486
37.13
37.595
37.8
37.77
37.599
37.382
37.186
37.038
36.937
36.885
36.87
36.857
36.825
36.777
36.727
36.698
36.716
36.76
36.791
36.797
36.777
36.724
36.649
36.556
36.451
36.354
36.272
36.201
36.136
36.071
36.001
35.933
35.882
35.85
35.834
35.821
35.795
35.758
35.728
35.701
35.667
35.635
35.619
35.616
35.606
35.585
35.554
35.527
35.508
35.477
35.442
35.443
35.558
35.873
36.417
37.104
37.749
38.179
38.332
38.26
38.065
37.836
37.625
37.459
37.35
37.288
37.251
37.212
37.169
37.12
37.077
37.053
37.05
37.069
37.098
37.115
37.106
37.057
36.962
36.848
36.736
36.637
36.556
36.483
36.419
36.368
36.311
36.243
36.177
36.131
36.094
36.063
36.036
36.006
35.973
35.94
35.902
35.863
35.824
35.778
35.722
35.666
35.61
35.558
35.515
35.516
35.625
35.926
36.431
37.044
37.593
37.934
38.019
37.894
37.649
37.378
37.139
36.954
36.819
36.711
36.616
36.546
36.508
36.509
36.553
36.618
36.688
36.742
36.768
36.756
36.708
36.617
36.483
36.336
36.205
36.103
36.025
35.957
35.898
35.843
35.785
35.733
35.688
35.655
35.637
35.626
35.6
35.558
35.512
35.477
35.455
35.43
35.393
35.346
35.29
35.24
35.222
35.297
35.554
36.041
36.69
37.331
37.785
37.967
37.91
37.715
37.479
37.261
37.092
36.986
36.925
36.885
36.851
36.815
36.789
36.773
36.78
36.818
36.867
36.911
36.921
36.879
36.795
36.706
36.63
36.487
36.246
36.009
35.9
35.943
36.041
36.096
36.081
36.033
36.007
36.011
36.008
35.979
35.936
35.9
35.884
35.889
35.89
35.86
35.802
35.739
35.687
35.643
35.595
35.54
35.493
35.517
35.719
36.169
36.818
37.503
38.049
38.346
38.395
38.26
38.03
37.785
37.591
37.465
37.392
37.35
37.32
37.289
37.255
37.231
37.227
37.241
37.266
37.284
37.277
37.236
37.173
37.095
37.004
36.91
36.818
36.724
36.642
36.568
36.499
36.445
36.395
36.342
36.291
36.247
36.208
36.172
36.138
36.1
36.051
35.997
35.944
35.904
35.88
35.861
35.836
35.798
35.751
35.697
35.644
35.615
35.657
35.861
36.302
36.94
37.618
38.142
38.397
38.388
38.2
37.937
37.677
37.462
37.302
37.181
37.076
36.99
36.926
36.892
36.9
36.947
37.016
37.078
37.116
37.116
37.069
36.969
36.831
36.682
36.55
36.438
36.347
36.27
36.208
36.155
36.099
36.038
35.982
35.936
35.894
35.852
35.807
35.753
35.698
35.657
35.628
35.61
35.589
35.55
35.485
35.413
35.352
35.321
35.372
35.58
36.005
36.618
37.281
37.823
38.12
38.148
37.979
37.726
37.474
37.272
37.124
37.022
36.948
36.882
36.815
36.759
36.726
36.725
36.755
36.803
36.847
36.867
36.855
36.796
36.689
36.559
36.431
36.314
36.208
36.119
36.04
35.972
35.915
35.864
35.815
35.766
35.723
35.689
35.658
35.625
35.592
35.557
35.522
35.488
35.466
35.452
35.435
35.409
35.38
35.346
35.307
35.265
35.223
35.196
35.208
35.317
35.608
36.125
36.798
37.47
37.978
38.231
38.226
38.039
37.774
37.51
37.294
37.151
37.076
37.033
36.99
36.932
36.868
36.828
36.83
36.865
36.913
36.951
36.953
36.911
36.836
36.749
36.649
36.533
36.416
36.309
36.218
36.151
36.099
36.047
35.988
35.929
35.878
35.84
35.814
35.792
35.763
35.717
35.674
35.634
35.587
35.537
35.491
35.45
35.407
35.369
35.349
35.343
35.333
35.31
35.285
35.255
35.226
35.201
35.217
35.352
35.691
36.241
36.893
37.468
37.816
37.885
37.734
37.468
37.173
36.903
36.697
36.555
36.446
36.354
36.284
36.248
36.258
36.305
36.377
36.464
36.535
36.561
36.531
36.464
36.377
36.274
36.157
36.04
35.939
35.858
35.792
35.733
35.67
35.609
35.56
35.526
35.504
35.484
35.466
35.455
35.444
35.424
35.393
35.36
35.329
35.299
35.276
35.245
35.195
35.127
35.069
35.047
35.1
35.295
35.678
36.223
36.796
37.246
37.47
37.446
37.25
36.983
36.712
36.467
36.273
36.138
36.048
35.986
35.939
35.91
35.913
35.946
36.006
36.077
36.143
36.175
36.16
36.107
36.027
35.931
35.841
35.762
35.687
35.615
35.554
35.504
35.466
35.435
35.405
35.38
35.363
35.355
35.357
35.361
35.359
35.36
35.357
35.343
35.332
35.329
35.33
35.329
35.323
35.303
35.266
35.234
35.24
35.334
35.59
36.057
36.663
37.256
37.673
37.832
37.754
37.53
37.267
37.035
36.856
36.735
36.658
36.612
36.584
36.564
36.56
36.567
36.583
36.612
36.644
36.67
36.679
36.668
36.633
36.573
36.501
36.425
36.352
36.288
36.236
36.193
36.153
36.116
36.089
36.07
36.048
36.026
36.009
35.996
35.98
35.976
35.965
35.947
35.934
35.945
35.954
35.944
35.942
35.994
36.074
36.118
36.091
36.019
35.966
36.019
36.257
36.701
37.264
37.795
38.15
38.261
38.157
37.916
37.626
37.361
37.161
37.025
36.933
36.864
36.813
36.783
36.787
36.824
36.875
36.933
36.993
37.04
37.056
37.038
36.975
36.871
36.752
36.639
36.551
36.493
36.444
36.397
36.352
36.311
36.279
36.25
36.221
36.196
36.174
36.161
36.153
36.145
36.122
36.083
36.034
35.98
35.918
35.862
35.83
35.855
36.003
36.329
36.809
37.335
37.752
37.95
37.915
37.72
37.454
37.198
36.984
36.823
36.715
36.637
36.572
36.515
36.482
36.477
36.503
36.545
36.59
36.617
36.611
36.566
36.491
36.398
36.292
36.182
36.081
35.996
35.929
35.874
35.822
35.768
35.722
35.692
35.674
35.664
35.649
35.621
35.593
35.568
35.546
35.532
35.528
35.523
35.501
35.466
35.424
35.381
35.345
35.322
35.358
35.539
35.927
36.493
37.105
37.599
37.852
37.852
37.68
37.437
37.204
37.019
36.898
36.837
36.812
36.796
36.775
36.743
36.699
36.653
36.629
36.645
36.683
36.719
36.722
36.681
36.607
36.524
36.448
36.381
36.318
36.26
36.211
36.166
36.121
36.081
36.055
36.038
36.025
36.01
35.988
35.959
35.933
35.914
35.901
35.89
35.872
35.849
35.825
35.805
35.786
35.768
35.754
35.734
35.695
35.644
35.594
35.589
35.708
36.017
36.525
37.149
37.726
38.095
38.191
38.063
37.824
37.572
37.359
37.203
37.099
37.054
37.055
37.058
37.035
36.985
36.929
36.895
36.896
36.927
36.969
36.997
36.987
36.929
36.841
36.745
36.654
36.574
36.515
36.469
36.433
36.393
36.346
36.301
36.265
36.238
36.213
36.188
36.161
36.129
36.094
36.067
36.046
36.017
35.986
35.961
35.946
35.926
35.887
35.83
35.77
35.717
35.68
35.682
35.776
36.046
36.511
37.07
37.557
37.834
37.863
37.698
37.441
37.173
36.943
36.778
36.681
36.627
36.584
36.537
36.498
36.478
36.487
36.528
36.592
36.651
36.678
36.657
36.583
36.47
36.34
36.213
36.1
36.001
35.915
35.845
35.798
35.758
35.709
35.65
35.595
35.543
35.493
35.448
35.405
35.349
35.275
35.206
35.153
35.123
35.107
35.089
35.061
35.023
34.984
34.943
34.898
34.854
34.85
34.963
35.272
35.788
36.408
36.953
37.276
37.334
37.202
36.985
36.765
36.58
36.445
36.365
36.333
36.322
36.32
36.318
36.315
36.33
36.366
36.425
36.492
36.54
36.552
36.526
36.472
36.407
36.336
36.258
36.184
36.116
36.066
36.033
36.004
35.973
35.949
35.934
35.922
35.912
35.894
35.871
35.85
35.826
35.798
35.765
35.74
35.734
35.739
35.734
35.705
35.669
35.641
35.614
35.576
35.534
35.517
35.599
35.864
36.343
36.959
37.553
37.97
38.123
38.041
37.821
37.567
37.336
37.152
37.031
36.964
36.935
36.925
36.926
36.928
36.932
36.947
36.984
37.031
37.072
37.096
37.099
37.081
37.047
37.008
36.968
36.933
36.901
36.864
36.817
36.761
36.716
36.691
36.681
36.679
36.685
36.701
36.714
36.71
36.677
36.621
36.561
36.518
36.507
36.517
36.531
36.52
36.468
36.398
36.366
36.46
36.763
37.266
37.859
38.372
38.661
38.678
38.487
38.208
37.933
37.722
37.592
37.516
37.459
37.395
37.331
37.293
37.294
37.337
37.411
37.498
37.569
37.605
37.597
37.539
37.436
37.31
37.196
37.114
37.054
36.997
36.934
36.865
36.793
36.734
36.688
36.659
36.639
36.614
36.575
36.522
36.469
36.429
36.4
36.368
36.321
36.256
36.187
36.145
36.167
36.315
36.654
37.172
37.765
38.276
38.572
38.611
38.45
38.193
37.923
37.688
37.508
37.386
37.317
37.275
37.236
37.191
37.144
37.122
37.13
37.145
37.155
37.145
37.114
37.061
36.983
36.881
36.766
36.648
36.535
36.43
36.341
36.28
36.243
36.213
36.183
36.141
36.091
36.046
36.012
35.99
35.97
35.939
35.901
35.862
35.822
35.773
35.712
35.653
35.639
35.746
36.053
36.561
37.161
37.687
38.005
38.077
37.954
37.726
37.485
37.277
37.127
37.049
37.014
36.991
36.96
36.914
36.854
36.803
36.774
36.768
36.772
36.767
36.743
36.704
36.648
36.566
36.467
36.363
36.261
36.178
36.127
36.095
36.062
36.023
35.974
35.927
35.894
35.864
35.831
35.803
35.769
35.734
35.699
35.674
35.661
35.645
35.614
35.579
35.547
35.53
35.568
35.739
36.106
36.666
37.299
37.833
38.139
38.188
38.038
37.789
37.52
37.284
37.113
37.007
36.942
36.88
36.8
36.724
36.681
36.681
36.72
36.777
36.826
36.853
36.856
36.829
36.776
36.693
36.596
36.494
36.401
36.332
36.282
36.241
36.21
36.19
36.181
36.175
36.157
36.129
36.094
36.061
36.038
36.023
36.012
36.001
35.987
35.978
35.968
35.946
35.91
35.875
35.839
35.804
35.812
35.954
36.312
36.865
37.471
37.945
38.163
38.119
37.896
37.602
37.315
37.078
36.914
36.811
36.739
36.679
36.638
36.634
36.677
36.761
36.863
36.95
36.987
36.965
36.901
36.819
36.72
36.608
36.494
36.392
36.309
36.251
36.212
36.185
36.17
36.145
36.105
36.06
36.031
36.016
36.005
35.99
35.968
35.929
35.871
35.804
35.751
35.711
35.682
35.679
35.759
36.013
36.466
37.022
37.51
37.797
37.837
37.674
37.402
37.113
36.868
36.691
36.582
36.518
36.468
36.414
36.363
36.339
36.361
36.427
36.505
36.561
36.565
36.513
36.426
36.322
36.207
36.095
36.003
35.937
35.896
35.87
35.841
35.802
35.762
35.727
35.707
35.683
35.648
35.619
35.611
35.612
35.607
35.598
35.591
35.586
35.58
35.562
35.523
35.465
35.424
35.473
35.691
36.117
36.695
37.28
37.696
37.854
37.771
37.543
37.276
37.043
36.861
36.736
36.713
36.788
36.863
36.845
36.727
36.578
36.476
36.486
36.602
36.749
36.816
36.742
36.563
36.373
36.228
36.116
36.013
35.918
35.849
35.809
35.77
35.738
35.752
35.799
35.836
35.813
35.716
35.544
35.346
35.187
35.067
34.925
34.735
34.547
34.428
34.379
34.351
34.306
34.239
34.149
34.048
33.961
33.917
33.97
34.215
34.704
35.36
35.98
36.363
36.431
36.264
36.009
35.79
35.656
35.607
35.613
35.634
35.651
35.654
35.635
35.595
35.557
35.545
35.568
35.616
35.648
35.642
35.593
35.518
35.427
35.333
35.251
35.192
35.148
35.114
35.091
35.079
35.07
35.062
35.06
35.069
35.083
35.093
35.101
35.127
35.17
35.215
35.252
35.286
35.322
35.356
35.387
35.404
35.407
35.401
35.401
35.451
35.624
35.993
36.531
37.095
37.529
37.728
37.662
37.397
37.058
36.784
36.649
36.619
36.625
36.623
36.611
36.605
36.627
36.679
36.755
36.833
36.9
36.946
36.953
36.917
36.848
36.755
36.663
36.574
36.494
36.425
36.37
36.325
36.283
36.245
36.223
36.21
36.198
36.184
36.16
36.122
36.077
36.041
36.013
35.988
35.969
35.963
35.964
35.962
35.95
35.922
35.876
35.822
35.782
35.78
35.84
36.03
36.414
36.969
37.575
38.058
38.239
38.103
37.795
37.503
37.335
37.276
37.265
37.27
37.295
37.293
37.189
36.975
36.737
36.612
36.665
36.859
37.092
37.276
37.37
37.392
37.372
37.336
37.276
37.2
37.125
37.06
37.023
37.021
37.035
37.043
37.03
36.995
36.951
36.919
36.906
36.898
36.878
36.84
36.797
36.751
36.708
36.669
36.625
36.575
36.543
36.54
36.55
36.542
36.505
36.454
36.406
36.382
36.459
36.737
37.236
37.841
38.366
38.655
38.663
38.462
38.17
37.894
37.68
37.538
37.467
37.443
37.424
37.383
37.321
37.266
37.236
37.235
37.255
37.271
37.274
37.27
37.249
37.205
37.136
37.053
36.964
36.884
36.817
36.769
36.734
36.702
36.675
36.648
36.617
36.573
36.528
36.493
36.466
36.445
36.423
36.393
36.363
36.343
36.332
36.317
36.284
36.236
36.183
36.123
36.062
36.007
35.979
36.023
36.227
36.635
37.186
37.729
38.099
38.203
38.062
37.781
37.461
37.174
36.96
36.818
36.723
36.659
36.623
36.612
36.629
36.671
36.729
36.793
36.85
36.87
36.844
36.782
36.699
36.601
36.499
36.402
36.329
36.277
36.243
36.212
36.18
36.147
36.119
36.088
36.062
36.046
36.029
36.007
35.988
35.971
35.954
35.934
35.908
35.871
35.822
35.778
35.744
35.716
35.705
35.758
35.962
36.37
36.92
37.448
37.786
37.876
37.752
37.493
37.192
36.928
36.73
36.596
36.527
36.512
36.513
36.512
36.511
36.511
36.517
36.54
36.574
36.6
36.607
36.575
36.503
36.409
36.306
36.202
36.113
36.053
36.016
35.984
35.947
35.913
35.89
35.887
35.883
35.87
35.855
35.852
35.86
35.87
35.866
35.851
35.834
35.827
35.823
35.814
35.795
35.768
35.725
35.688
35.686
35.764
35.995
36.417
36.971
37.515
37.894
38.018
37.915
37.687
37.438
37.227
37.071
36.958
36.888
36.862
36.854
36.836
36.809
36.787
36.791
36.82
36.852
36.867
36.853
36.81
36.747
36.667
36.579
36.493
36.413
36.346
36.285
36.227
36.187
36.17
36.157
36.133
36.103
36.081
36.069
36.059
36.05
36.044
36.032
36.003
35.97
35.954
35.952
35.951
35.938
35.91
35.863
35.798
35.738
35.723
35.817
36.086
36.539
37.085
37.561
37.821
37.826
37.636
37.339
37.027
36.774
36.606
36.518
36.485
36.47
36.461
36.466
36.495
36.555
36.637
36.719
36.778
36.792
36.768
36.718
36.646
36.554
36.451
36.357
36.293
36.257
36.235
36.212
36.185
36.158
36.13
36.103
36.075
36.05
36.024
36.005
35.988
35.965
35.94
35.915
35.876
35.822
35.761
35.706
35.661
35.643
35.71
35.928
36.325
36.836
37.321
37.64
37.722
37.586
37.325
37.035
36.786
36.62
36.54
36.517
36.502
36.477
36.448
36.437
36.457
36.492
36.532
36.568
36.589
36.576
36.523
36.444
36.354
36.271
36.193
36.125
36.067
36.018
35.983
35.956
35.93
35.905
35.878
35.843
35.812
35.79
35.78
35.775
35.77
35.765
35.757
35.741
35.719
35.7
35.682
35.658
35.615
35.568
35.542
35.569
35.689
35.969
36.426
36.983
37.478
37.769
37.812
37.661
37.414
37.162
36.962
36.838
36.786
36.783
36.797
36.802
36.785
36.758
36.747
36.768
36.806
36.833
36.84
36.834
36.811
36.762
36.696
36.628
36.565
36.509
36.466
36.431
36.401
36.368
36.334
36.3
36.268
36.236
36.206
36.172
36.137
36.102
36.077
36.063
36.005
35.867
35.704
35.614
35.649
35.761
35.859
35.893
35.875
35.843
35.829
35.859
35.975
36.252
36.71
37.259
37.742
38.021
38.055
37.898
37.64
37.372
37.159
37.034
36.984
36.973
36.959
36.926
36.891
36.878
36.899
36.944
36.997
37.047
37.077
37.078
37.053
37.009
36.939
36.857
36.766
36.68
36.618
36.586
36.568
36.549
36.524
36.5
36.482
36.477
36.481
36.484
36.479
36.46
36.437
36.417
36.391
36.348
36.278
36.198
36.126
36.072
36.057
36.14
36.378
36.78
37.246
37.627
37.822
37.81
37.636
37.376
37.102
36.877
36.73
36.646
36.584
36.529
36.476
36.446
36.452
36.49
36.553
36.621
36.659
36.646
36.59
36.511
36.425
36.326
36.227
36.139
36.075
36.026
35.973
35.922
35.897
35.899
35.901
35.895
35.879
35.854
35.823
35.79
35.762
35.739
35.727
35.731
35.745
35.755
35.743
35.705
35.651
35.602
35.579
35.622
35.81
36.202
36.752
37.303
37.671
37.77
37.646
37.409
37.164
36.982
36.869
36.81
36.786
36.782
36.779
36.771
36.753
36.739
36.743
36.768
36.801
36.83
36.843
36.827
36.783
36.718
36.646
36.573
36.505
36.45
36.408
36.379
36.362
36.349
36.328
36.306
36.281
36.249
36.196
36.131
36.069
36.023
35.992
35.968
35.95
35.936
35.935
35.931
35.913
35.873
35.824
35.778
35.745
35.776
35.949
36.32
36.842
37.369
37.744
37.879
37.79
37.565
37.311
37.095
36.94
36.852
36.83
36.838
36.839
36.818
36.79
36.779
36.799
36.841
36.886
36.912
36.904
36.862
36.797
36.716
36.625
36.536
36.459
36.403
36.366
36.341
36.316
36.277
36.235
36.211
36.203
36.196
36.178
36.148
36.116
36.096
36.088
36.082
36.063
36.026
35.975
35.919
35.872
35.841
35.863
36.006
36.327
36.791
37.264
37.591
37.69
37.581
37.35
37.086
36.851
36.677
36.57
36.51
36.476
36.457
36.451
36.46
36.485
36.525
36.575
36.618
36.625
36.584
36.508
36.427
36.347
36.264
36.174
36.085
36.015
35.978
35.96
35.938
35.906
35.873
35.838
35.81
35.791
35.782
35.768
35.75
35.73
35.717
35.712
35.709
35.694
35.66
35.629
35.611
35.609
35.634
35.725
35.969
36.396
36.924
37.401
37.683
37.725
37.589
37.379
37.171
37.017
36.925
36.892
36.904
36.929
36.922
36.884
36.837
36.802
36.795
36.814
36.845
36.871
36.874
36.847
36.793
36.726
36.658
36.599
36.55
36.503
36.458
36.411
36.365
36.33
36.312
36.302
36.282
36.246
36.204
36.175
36.163
36.156
36.137
36.099
36.06
36.033
36.029
36.03
36.01
35.963
35.914
35.873
35.845
35.851
35.959
36.246
36.724
37.287
37.774
38.043
38.063
37.887
37.627
37.378
37.191
37.082
37.042
37.038
37.044
37.035
36.995
36.937
36.9
36.903
36.933
36.963
36.986
36.989
36.957
36.894
36.811
36.718
36.628
36.543
36.476
36.427
36.397
36.376
36.347
36.305
36.264
36.233
36.212
36.192
36.169
36.14
36.114
36.055
35.927
35.778
35.696
35.733
35.838
35.906
35.892
35.829
35.773
35.773
35.862
36.076
36.439
36.913
37.381
37.697
37.779
37.652
37.411
37.159
36.949
36.802
36.71
36.65
36.608
36.592
36.605
36.643
36.683
36.726
36.771
36.81
36.824
36.784
36.703
36.61
36.523
36.444
36.366
36.284
36.212
36.157
36.116
36.089
36.072
36.059
36.042
36.01
35.982
35.97
35.965
35.952
35.919
35.861
35.798
35.756
35.739
35.742
35.757
35.762
35.75
35.712
35.662
35.638
35.717
35.989
36.463
37.023
37.486
37.719
37.699
37.487
37.183
36.891
36.677
36.553
36.51
36.523
36.557
36.581
36.583
36.582
36.588
36.6
36.618
36.644
36.67
36.672
36.643
36.582
36.502
36.419
36.356
36.316
36.287
36.261
36.227
36.187
36.15
36.118
36.089
36.063
36.047
36.053
36.069
36.078
36.071
36.056
36.046
36.038
36.015
35.992
35.987
35.999
36.012
36.011
35.985
35.944
35.915
35.942
36.094
36.436
36.947
37.496
37.91
38.076
37.993
37.748
37.446
37.165
36.951
36.82
36.766
36.766
36.787
36.805
36.807
36.793
36.77
36.766
36.798
36.845
36.877
36.884
36.862
36.822
36.761
36.677
36.584
36.513
36.472
36.454
36.44
36.415
36.38
36.345
36.321
36.303
36.289
36.279
36.271
36.26
36.248
36.24
36.235
36.235
36.235
36.235
36.222
36.187
36.134
36.079
36.059
36.122
36.337
36.733
37.235
37.693
37.963
37.989
37.804
37.508
37.2
36.952
36.786
36.694
36.653
36.643
36.649
36.667
36.707
36.773
36.858
36.94
36.994
37.009
36.987
36.938
36.872
36.793
36.716
36.656
36.608
36.556
36.497
36.445
36.405
36.375
36.356
36.345
36.344
36.339
36.32
36.286
36.251
36.224
36.199
36.163
36.119
36.085
36.074
36.113
36.261
36.566
37.008
37.479
37.827
37.948
37.855
37.632
37.363
37.115
36.925
36.802
36.728
36.695
36.685
36.693
36.715
36.751
36.796
36.845
36.9
36.945
36.969
36.961
36.915
36.842
36.754
36.66
36.579
36.519
36.488
36.462
36.435
36.41
36.391
36.384
36.38
36.364
36.334
36.3
36.28
36.284
36.303
36.315
36.3
36.258
36.204
36.163
36.16
36.252
36.517
36.971
37.508
37.955
38.178
38.149
37.94
37.653
37.368
37.155
37.039
37.015
37.045
37.082
37.089
37.066
37.039
37.032
37.053
37.095
37.139
37.161
37.141
37.084
37.0
36.915
36.841
36.777
36.725
36.679
36.629
36.581
36.543
36.518
36.503
36.492
36.48
36.458
36.429
36.402
36.38
36.364
36.342
36.309
36.266
36.225
36.19
36.163
36.168
36.259
36.515
36.956
37.485
37.919
38.126
38.082
37.857
37.557
37.278
37.067
36.933
36.869
36.847
36.831
36.82
36.818
36.833
36.873
36.94
37.008
37.061
37.085
37.07
37.017
36.932
36.831
36.728
36.639
36.581
36.552
36.543
36.539
36.528
36.505
36.476
36.454
36.446
36.445
36.446
36.445
36.436
36.41
36.372
36.33
36.293
36.289
36.367
36.593
36.986
37.455
37.84
38.023
37.984
37.777
37.486
37.194
36.956
36.796
36.712
36.677
36.662
36.654
36.67
36.708
36.768
36.84
36.902
36.931
36.924
36.877
36.797
36.709
36.627
36.547
36.469
36.403
36.35
36.31
36.285
36.276
36.273
36.27
36.267
36.257
36.236
36.205
36.183
36.173
36.165
36.15
36.136
36.124
36.112
36.119
36.205
36.455
36.9
37.439
37.888
38.104
38.067
37.859
37.595
37.359
37.184
37.075
37.015
36.995
36.995
36.988
36.889
36.706
36.543
36.521
36.658
36.852
36.985
37.015
36.988
36.953
36.924
36.888
36.833
36.762
36.699
36.665
36.647
36.628
36.6
36.571
36.55
36.542
36.536
36.526
36.511
36.498
36.488
36.484
36.476
36.458
36.426
36.385
36.379
36.482
36.761
37.217
37.747
38.17
38.355
38.298
38.079
37.791
37.525
37.337
37.233
37.193
37.194
37.209
37.207
37.177
37.141
37.136
37.177
37.24
37.293
37.307
37.268
37.185
37.081
36.981
36.898
36.827
36.772
36.733
36.7
36.664
36.625
36.587
36.557
36.536
36.523
36.514
36.507
36.502
36.496
36.48
36.449
36.4
36.349
36.321
36.359
36.519
36.847
37.31
37.774
38.094
38.185
38.062
37.81
37.519
37.273
37.102
36.996
36.932
36.888
36.855
36.835
36.842
36.875
36.921
36.965
36.993
36.996
36.966
36.904
36.82
36.724
36.624
36.523
36.425
36.343
36.291
36.27
36.26
36.247
36.221
36.184
36.149
36.119
36.094
36.079
36.076
36.078
36.065
36.026
35.97
35.917
35.886
35.897
36.014
36.311
36.776
37.287
37.684
37.856
37.797
37.582
37.32
37.089
36.928
36.852
36.843
36.856
36.853
36.826
36.794
36.772
36.775
36.802
36.843
36.879
36.894
36.874
36.823
36.745
36.656
36.582
36.527
36.481
36.442
36.409
36.377
36.348
36.314
36.282
36.26
36.245
36.237
36.232
36.228
36.22
36.208
36.192
36.162
36.122
36.083
36.053
36.034
36.029
36.057
36.195
36.525
37.027
37.556
37.93
38.052
37.941
37.701
37.436
37.211
37.056
36.979
36.965
36.972
36.971
36.952
36.906
36.855
36.825
36.831
36.863
36.893
36.904
36.884
36.833
36.762
36.68
36.59
36.495
36.413
36.359
36.336
36.333
36.335
36.323
36.293
36.257
36.228
36.203
36.168
36.139
36.127
36.125
36.12
36.1
36.059
36.006
35.952
35.909
35.883
35.877
35.928
36.118
36.492
36.978
37.426
37.698
37.731
37.552
37.258
36.955
36.711
36.555
36.481
36.449
36.423
36.4
36.395
36.426
36.498
36.589
36.673
36.734
36.759
36.742
36.682
36.595
36.5
36.411
36.332
36.267
36.211
36.17
36.141
36.125
36.11
36.075
36.035
36.011
35.994
35.973
35.946
35.916
35.882
35.845
35.796
35.745
35.709
35.716
35.809
36.048
36.449
36.909
37.284
37.455
37.4
37.176
36.88
36.605
36.402
36.283
36.237
36.235
36.239
36.231
36.226
36.25
36.314
36.402
36.478
36.514
36.503
36.454
36.39
36.335
36.284
36.227
36.164
36.11
36.08
36.069
36.062
36.053
36.045
36.034
36.018
36.0
35.987
35.986
35.994
36.006
36.014
36.003
35.974
35.936
35.907
35.898
35.912
35.985
36.201
36.608
37.125
37.588
37.854
37.873
37.704
37.454
37.212
37.027
36.921
36.871
36.86
36.866
36.881
36.884
36.875
36.866
36.87
36.898
36.94
36.972
36.969
36.928
36.859
36.777
36.694
36.63
36.595
36.56
36.512
36.456
36.401
36.353
36.328
36.32
36.314
36.3
36.275
36.25
36.228
36.213
36.204
36.194
36.177
36.147
36.108
36.063
36.025
36.051
36.228
36.598
37.099
37.568
37.845
37.87
37.685
37.396
37.113
36.898
36.764
36.692
36.661
36.643
36.628
36.614
36.615
36.648
36.714
36.798
36.863
36.888
36.871
36.814
36.736
36.653
36.572
36.498
36.433
36.383
36.351
36.337
36.33
36.329
36.325
36.31
36.286
36.265
36.257
36.253
36.235
36.191
36.133
36.08
36.03
35.996
36.02
36.165
36.478
36.919
37.347
37.6
37.621
37.457
37.199
36.931
36.701
36.536
36.439
36.388
36.36
36.348
36.358
36.387
36.431
36.489
36.547
36.59
36.608
36.59
36.537
36.462
36.375
36.277
36.193
36.141
36.119
36.114
36.111
36.097
36.071
36.043
36.019
35.994
35.981
35.98
35.981
35.982
35.981
35.969
35.945
35.916
35.889
35.876
35.904
36.047
36.364
36.835
37.342
37.727
37.891
37.818
37.584
37.287
37.019
36.84
36.758
36.75
36.775
36.795
36.797
36.783
36.77
36.778
36.805
36.846
36.892
36.916
36.904
36.857
36.791
36.719
36.642
36.568
36.506
36.459
36.427
36.404
36.379
36.35
36.323
36.305
36.294
36.268
36.228
36.188
36.15
36.119
36.097
36.083
36.066
36.039
35.997
35.951
35.968
36.137
36.509
37.026
37.53
37.86
37.936
37.788
37.51
37.206
36.95
36.786
36.719
36.721
36.731
36.703
36.647
36.588
36.559
36.583
36.647
36.718
36.765
36.769
36.739
36.689
36.62
36.549
36.495
36.463
36.446
36.426
36.402
36.383
36.368
36.341
36.298
36.247
36.204
36.185
36.195
36.224
36.244
36.231
36.188
36.129
36.078
36.063
36.129
36.339
36.707
37.154
37.542
37.748
37.726
37.52
37.233
36.962
36.757
36.624
36.548
36.493
36.451
36.434
36.454
36.506
36.583
36.664
36.72
36.742
36.727
36.676
36.589
36.491
36.386
36.286
36.207
36.15
36.116
36.1
36.094
36.09
36.083
36.068
36.033
35.993
35.971
35.978
35.993
35.987
35.948
35.881
35.808
35.756
35.743
35.787
35.919
36.194
36.624
37.11
37.495
37.662
37.618
37.431
37.182
36.935
36.737
36.62
36.589
36.624
36.674
36.696
36.676
36.64
36.631
36.665
36.723
36.767
36.771
36.732
36.666
36.595
36.538
36.497
36.466
36.436
36.393
36.33
36.257
36.183
36.121
36.081
36.057
36.035
36.011
35.981
35.948
35.915
35.884
35.858
35.836
35.814
35.793
35.771
35.763
35.841
36.09
36.532
37.062
37.512
37.757
37.767
37.593
37.319
37.04
36.832
36.724
36.696
36.698
36.696
36.666
36.617
36.564
36.533
36.545
36.598
36.647
36.654
36.612
36.528
36.432
36.334
36.232
36.145
36.072
36.01
35.951
35.902
35.862
35.826
35.794
35.764
35.734
35.709
35.689
35.686
35.696
35.698
35.676
35.632
35.581
35.544
35.534
35.577
35.72
36.002
36.39
36.766
36.994
37.005
36.819
36.517
36.211
35.974
35.813
35.699
35.602
35.531
35.498
35.51
35.568
35.651
35.735
35.8
35.83
35.821
35.776
35.696
35.595
35.495
35.408
35.334
35.284
35.267
35.273
35.285
35.293
35.296
35.297
35.29
35.273
35.246
35.213
35.173
35.135
35.117
35.114
35.113
35.105
35.086
35.056
35.023
35.012
35.077
35.29
35.7
36.247
36.767
37.097
37.162
37.001
36.728
36.459
36.249
36.122
36.077
36.083
36.095
36.099
36.089
36.078
36.079
36.107
36.161
36.21
36.226
36.203
36.159
36.112
36.073
36.032
35.988
35.946
35.9
35.857
35.831
35.822
35.829
35.843
35.847
35.828
35.795
35.772
35.762
35.769
35.779
35.776
35.754
35.727
35.719
35.727
35.729
35.72
35.689
35.641
35.614
35.696
35.98
36.469
37.033
37.488
37.691
37.64
37.43
37.171
36.934
36.748
36.618
36.542
36.499
36.47
36.448
36.427
36.405
36.404
36.449
36.521
36.576
36.602
36.602
36.586
36.548
36.49
36.412
36.324
36.243
36.186
36.155
36.131
36.104
36.074
36.048
36.033
36.023
36.03
36.044
36.037
36.013
35.997
35.999
36.017
36.042
36.06
36.052
36.018
35.98
35.949
35.915
35.885
35.904
36.032
36.346
36.823
37.329
37.692
37.803
37.662
37.355
36.996
36.688
36.481
36.368
36.319
36.31
36.302
36.297
36.309
36.364
36.47
36.594
36.696
36.747
36.745
36.7
36.627
36.547
36.472
36.401
36.333
36.276
36.243
36.241
36.263
36.283
36.286
36.264
36.223
36.172
36.128
36.117
36.132
36.133
36.103
36.051
35.994
35.935
35.895
35.909
36.026
36.298
36.714
37.16
37.493
37.622
37.545
37.317
37.026
36.743
36.517
36.374
36.301
36.269
36.259
36.273
36.308
36.358
36.423
36.504
36.598
36.672
36.595
36.346
36.041
35.864
35.875
35.994
36.096
36.125
36.114
36.12
36.159
36.191
36.184
36.163
36.16
36.194
36.238
36.271
36.289
36.296
36.302
36.302
36.289
36.262
36.228
36.206
36.248
36.43
36.799
37.307
37.801
38.118
38.18
38.021
37.748
37.456
37.208
37.041
36.961
36.936
36.933
36.929
36.921
36.921
36.937
36.978
37.037
37.099
37.139
37.141
37.109
37.055
36.995
36.924
36.838
36.751
36.682
36.643
36.632
36.635
36.632
36.617
36.596
36.579
36.573
36.568
36.55
36.518
36.485
36.464
36.461
36.466
36.462
36.446
36.427
36.446
36.596
36.941
37.434
37.922
38.234
38.281
38.094
37.777
37.444
37.167
36.972
36.862
36.813
36.799
36.794
36.79
36.8
36.835
36.891
36.961
37.045
37.123
37.154
37.119
37.031
36.921
36.814
36.721
36.646
36.588
36.555
36.546
36.546
36.538
36.519
36.493
36.469
36.467
36.483
36.495
36.482
36.439
36.38
36.328
36.302
36.344
36.518
36.853
37.288
37.681
37.896
37.886
37.683
37.376
37.057
36.787
36.6
36.489
36.434
36.413
36.412
36.429
36.469
36.542
36.632
36.718
36.774
36.787
36.758
36.697
36.621
36.538
36.453
36.376
36.321
36.287
36.26
36.242
36.239
36.241
36.24
36.238
36.24
36.247
36.249
36.233
36.204
36.172
36.141
36.113
36.098
36.105
36.177
36.394
36.792
37.3
37.763
38.039
38.068
37.892
37.603
37.311
37.087
36.958
36.918
36.925
36.937
36.935
36.924
36.919
36.935
36.972
37.021
37.068
37.088
37.08
37.046
36.991
36.916
36.84
36.776
36.724
36.683
36.653
36.627
36.602
36.574
36.554
36.533
36.505
36.478
36.46
36.461
36.473
36.48
36.467
36.438
36.403
36.373
36.371
36.469
36.748
37.208
37.729
38.143
38.331
38.28
38.065
37.786
37.52
37.322
37.209
37.166
37.158
37.144
37.103
37.06
37.039
37.053
37.083
37.113
37.135
37.147
37.15
37.124
37.059
36.965
36.872
36.797
36.737
36.695
36.658
36.624
36.596
36.582
36.571
36.555
36.532
36.498
36.454
36.42
36.404
36.392
36.37
36.329
36.278
36.234
36.227
36.301
36.519
36.897
37.354
37.749
37.958
37.946
37.757
37.477
37.191
36.956
36.803
36.73
36.708
36.717
36.76
36.771
36.649
36.439
36.294
36.338
36.538
36.739
36.827
36.794
36.716
36.662
36.637
36.609
36.559
36.501
36.469
36.465
36.476
36.476
36.444
36.397
36.358
36.335
36.323
36.313
36.289
36.247
36.201
36.171
36.179
36.28
36.54
36.953
37.415
37.771
37.919
37.859
37.667
37.432
37.21
37.025
36.895
36.838
36.848
36.87
36.86
36.82
36.789
36.789
36.83
36.895
36.941
36.943
36.905
36.845
36.787
36.727
36.66
36.591
36.531
36.493
36.465
36.436
36.407
36.379
36.363
36.356
36.353
36.345
36.32
36.29
36.259
36.24
36.243
36.254
36.257
36.248
36.22
36.18
36.157
36.216
36.438
36.847
37.354
37.797
38.034
38.02
37.812
37.51
37.214
36.984
36.838
36.772
36.767
36.776
36.758
36.704
36.642
36.601
36.594
36.621
36.667
36.698
36.69
36.637
36.553
36.463
36.398
36.361
36.342
36.321
36.284
36.242
36.208
36.19
36.191
36.193
36.183
36.161
36.138
36.124
36.106
36.077
36.037
35.998
35.973
35.979
36.054
36.252
36.608
37.07
37.488
37.717
37.708
37.51
37.228
36.957
36.759
36.645
36.602
36.595
36.595
36.587
36.573
36.559
36.557
36.579
36.629
36.689
36.727
36.728
36.685
36.609
36.517
36.433
36.369
36.331
36.308
36.293
36.274
36.255
36.238
36.223
36.21
36.206
36.209
36.201
36.175
36.14
36.109
36.121
36.233
36.496
36.904
37.349
37.675
37.775
37.652
37.391
37.091
36.819
36.623
36.526
36.503
36.507
36.502
36.478
36.454
36.464
36.517
36.605
36.701
36.763
36.762
36.701
36.611
36.534
36.478
36.432
36.386
36.346
36.317
36.302
36.307
36.309
36.292
36.255
36.214
36.179
36.154
36.128
36.09
36.063
36.111
36.321
36.708
37.17
37.547
37.722
37.664
37.432
37.126
36.841
36.632
36.509
36.452
36.427
36.402
36.368
36.344
36.366
36.433
36.523
36.607
36.666
36.688
36.666
36.605
36.517
36.42
36.341
36.291
36.263
36.244
36.235
36.237
36.233
36.213
36.187
36.168
36.164
36.173
36.189
36.202
36.198
36.176
36.142
36.105
36.072
36.079
36.212
36.555
37.067
37.581
37.925
38.013
37.88
37.615
37.326
37.085
36.925
36.851
36.841
36.861
36.873
36.856
36.825
36.815
36.831
36.858
36.893
36.922
36.919
36.879
36.821
36.768
36.714
36.652
36.589
36.542
36.517
36.498
36.463
36.412
36.359
36.325
36.316
36.318
36.313
36.284
36.243
36.22
36.223
36.234
36.224
36.185
36.131
36.092
36.103
36.207
36.465
36.897
37.412
37.851
38.071
38.036
37.805
37.481
37.161
36.915
36.775
36.728
36.725
36.733
36.731
36.735
36.749
36.781
36.83
36.896
36.969
37.025
37.034
36.991
36.908
36.82
36.742
36.678
36.623
36.568
36.521
36.487
36.473
36.477
36.483
36.483
36.473
36.465
36.465
36.465
36.444
36.398
36.345
36.314
36.33
36.445
36.705
37.097
37.526
37.858
37.986
37.891
37.634
37.319
37.029
36.813
36.676
36.607
36.574
36.558
36.543
36.536
36.555
36.609
36.679
36.736
36.764
36.763
36.738
36.685
36.609
36.513
36.419
36.346
36.297
36.267
36.24
36.212
36.194
36.18
36.164
36.143
36.115
36.091
36.082
36.095
36.119
36.128
36.108
36.066
36.022
36.016
36.096
36.328
36.74
37.247
37.699
37.948
37.933
37.696
37.354
37.025
36.776
36.642
36.615
36.637
36.649
36.627
36.597
36.597
36.626
36.66
36.689
36.712
36.725
36.721
36.692
36.629
36.541
36.451
36.375
36.327
36.307
36.298
36.296
36.296
36.289
36.278
36.272
36.271
36.266
36.239
36.202
36.185
36.204
36.253
36.301
36.319
36.296
36.239
36.182
36.156
36.177
36.262
36.465
36.829
37.304
37.746
38.009
38.03
37.838
37.524
37.199
36.95
36.804
36.743
36.734
36.751
36.777
36.805
36.832
36.868
36.916
36.973
37.025
37.056
37.053
37.02
36.96
36.878
36.783
36.687
36.601
36.535
36.497
36.478
36.469
36.461
36.441
36.402
36.352
36.32
36.313
36.318
36.317
36.296
36.247
36.182
36.116
36.053
35.994
35.941
35.923
35.998
36.226
36.608
37.042
37.386
37.523
37.426
37.165
36.833
36.515
36.263
36.095
36.002
35.957
35.936
35.928
35.931
35.965
36.036
36.126
36.199
36.223
36.189
36.12
36.036
35.95
35.865
35.789
35.733
35.7
35.674
35.659
35.655
35.643
35.603
35.556
35.517
35.506
35.512
35.506
35.472
35.412
35.346
35.291
35.259
35.28
35.413
35.705
36.12
36.521
36.764
36.786
36.625
36.369
36.095
35.854
35.665
35.538
35.468
35.432
35.413
35.414
35.448
35.507
35.575
35.651
35.707
35.716
35.687
35.65
35.615
35.571
35.498
35.401
35.318
35.262
35.225
35.184
35.119
35.034
34.956
34.901
34.858
34.813
34.758
34.696
34.632
34.573
34.512
34.445
34.372
34.307
34.27
34.287
34.421
34.736
35.206
35.708
36.094
36.26
36.203
35.989
35.713
35.468
35.292
35.192
35.165
35.183
35.208
35.211
35.193
35.184
35.225
35.303
35.385
35.433
35.434
35.412
35.387
35.35
35.297
35.236
35.178
35.145
35.136
35.135
35.126
35.11
35.09
35.077
35.066
35.06
35.074
35.101
35.131
35.158
35.178
35.187
35.19
35.19
35.197
35.223
35.262
35.328
35.475
35.769
36.211
36.708
37.106
37.309
37.289
37.089
36.805
36.524
36.31
36.191
36.155
36.157
36.155
36.138
36.122
36.133
36.188
36.276
36.368
36.43
36.45
36.43
36.382
36.317
36.245
36.178
36.121
36.079
36.042
35.999
35.956
35.913
35.87
35.834
35.805
35.793
35.8
35.817
35.823
35.802
35.76
35.718
35.688
35.679
35.729
35.901
36.223
36.657
37.093
37.407
37.519
37.429
37.213
36.959
36.73
36.548
36.416
36.326
36.267
36.23
36.211
36.228
36.295
36.41
36.544
36.656
36.712
36.7
36.634
36.529
36.415
36.31
36.229
36.173
36.126
36.078
36.041
36.013
35.984
35.947
35.907
35.875
35.863
35.872
35.884
35.878
35.837
35.776
35.725
35.719
35.812
36.06
36.469
36.955
37.37
37.598
37.596
37.404
37.119
36.836
36.612
36.458
36.367
36.327
36.309
36.294
36.279
36.269
36.279
36.325
36.399
36.471
36.498
36.465
36.39
36.299
36.209
36.127
36.053
35.994
35.951
35.917
35.889
35.863
35.833
35.81
35.805
35.815
35.826
35.826
35.818
35.802
35.784
35.767
35.756
35.747
35.738
35.738
35.791
35.981
36.355
36.862
37.353
37.661
37.708
37.542
37.274
37.01
36.81
36.672
36.577
36.515
36.484
36.477
36.478
36.485
36.49
36.498
36.523
36.562
36.595
36.601
36.567
36.505
36.437
36.371
36.302
36.232
36.179
36.146
36.126
36.112
36.104
36.091
36.077
36.065
36.054
36.046
36.044
36.042
36.033
36.016
35.994
35.966
35.933
35.906
35.928
36.066
36.372
36.817
37.29
37.638
37.747
37.619
37.337
36.997
36.695
36.479
36.36
36.313
36.303
36.303
36.307
36.325
36.361
36.415
36.478
36.543
36.595
36.621
36.603
36.537
36.437
36.311
36.185
36.089
36.031
36.0
35.981
35.961
35.928
35.879
35.83
35.8
35.793
35.795
35.786
35.758
35.727
35.722
35.772
35.922
36.209
36.594
36.963
37.193
37.223
37.072
36.813
36.536
36.3
36.132
36.036
35.987
35.959
35.95
35.969
36.03
36.123
36.223
36.306
36.354
36.356
36.327
36.261
36.167
36.052
35.926
35.813
35.737
35.704
35.704
35.712
35.709
35.698
35.684
35.674
35.677
35.708
35.758
35.79
35.771
35.721
35.672
35.646
35.676
35.815
36.12
36.565
37.009
37.296
37.336
37.15
36.847
36.551
36.332
36.216
36.188
36.211
36.243
36.258
36.251
36.228
36.206
36.21
36.242
36.281
36.304
36.294
36.258
36.214
36.168
36.124
36.086
36.051
36.015
35.984
35.963
35.952
35.94
35.92
35.893
35.861
35.833
35.817
35.811
35.808
35.805
35.794
35.771
35.742
35.716
35.701
35.744
35.932
36.308
36.797
37.241
37.501
37.527
37.355
37.078
36.802
36.609
36.507
36.477
36.497
36.522
36.514
36.472
36.413
36.368
36.358
36.383
36.425
36.456
36.451
36.405
36.335
36.255
36.175
36.101
36.041
35.993
35.957
35.933
35.926
35.927
35.929
35.921
35.896
35.861
35.832
35.822
35.831
35.843
35.84
35.814
35.774
35.74
35.763
35.915
36.243
36.68
37.075
37.282
37.256
37.06
36.794
36.535
36.329
36.19
36.115
36.076
36.058
36.043
36.029
36.03
36.056
36.112
36.168
36.201
36.197
36.157
36.081
35.98
35.867
35.767
35.69
35.636
35.6
35.576
35.565
35.563
35.551
35.523
35.49
35.466
35.449
35.437
35.435
35.443
35.443
35.422
35.391
35.362
35.345
35.37
35.493
35.771
36.203
36.676
37.02
37.122
36.988
36.706
36.394
36.135
35.95
35.837
35.788
35.787
35.793
35.782
35.763
35.754
35.759
35.786
35.828
35.878
35.916
35.916
35.866
35.792
35.724
35.678
35.651
35.633
35.614
35.598
35.58
35.561
35.543
35.532
35.534
35.534
35.526
35.517
35.513
35.515
35.522
35.532
35.545
35.556
35.558
35.553
35.555
35.562
35.562
35.547
35.517
35.484
35.469
35.484
35.569
35.809
36.246
36.79
37.259
37.493
37.454
37.214
36.898
36.615
36.427
36.34
36.331
36.363
36.4
36.413
36.394
36.354
36.313
36.295
36.314
36.357
36.389
36.39
36.363
36.32
36.273
36.223
36.167
36.112
36.072
36.059
36.059
36.052
36.035
36.018
36.0
35.98
35.971
35.981
36.004
36.026
36.032
36.018
35.991
35.964
35.941
35.923
35.93
35.959
35.982
35.97
35.916
35.84
35.779
35.762
35.846
36.111
36.559
37.074
37.475
37.623
37.505
37.211
36.861
36.557
36.357
36.251
36.213
36.206
36.199
36.186
36.18
36.197
36.237
36.293
36.365
36.429
36.465
36.451
36.396
36.319
36.239
36.162
36.09
36.034
36.013
36.022
36.028
36.002
35.956
35.917
35.903
35.911
35.924
35.933
35.939
35.938
35.92
35.897
35.878
35.863
35.851
35.857
35.924
36.124
36.472
36.894
37.251
37.42
37.366
37.136
36.817
36.501
36.25
36.09
36.016
35.998
36.002
36.014
36.028
36.043
36.072
36.133
36.212
36.273
36.288
36.263
36.221
36.162
36.08
35.982
35.896
35.848
35.838
35.848
35.855
35.855
35.853
35.854
35.869
35.901
35.94
35.969
35.989
36.007
36.03
36.062
36.089
36.092
36.074
36.051
36.018
35.976
35.945
35.967
36.125
36.48
36.985
37.491
37.831
37.908
37.752
37.466
37.153
36.895
36.725
36.641
36.614
36.62
36.642
36.66
36.664
36.659
36.661
36.681
36.723
36.773
36.806
36.804
36.762
36.691
36.603
36.516
36.453
36.411
36.377
36.354
36.343
36.344
36.344
36.328
36.303
36.288
36.288
36.3
36.315
36.321
36.318
36.306
36.296
36.294
36.292
36.282
36.266
36.24
36.222
36.251
36.402
36.742
37.229
37.719
38.043
38.11
37.951
37.654
37.311
37.01
36.808
36.704
36.679
36.69
36.698
36.699
36.701
36.715
36.748
36.806
36.875
36.932
36.956
36.932
36.869
36.784
36.695
36.612
36.539
36.48
36.436
36.407
36.395
36.385
36.364
36.342
36.331
36.338
36.356
36.382
36.407
36.419
36.405
36.366
36.318
36.291
36.321
36.452
36.726
37.128
37.541
37.824
37.892
37.753
37.479
37.155
36.857
36.631
36.489
36.428
36.422
36.44
36.468
36.5
36.543
36.616
36.714
36.811
36.873
36.879
36.835
36.746
36.637
36.538
36.458
36.403
36.375
36.36
36.345
36.336
36.334
36.323
36.311
36.297
36.273
36.24
36.198
36.16
36.134
36.127
36.159
36.277
36.537
36.945
37.402
37.755
37.894
37.806
37.561
37.246
36.939
36.693
36.531
36.455
36.437
36.437
36.439
36.448
36.475
36.528
36.598
36.672
36.724
36.739
36.716
36.664
36.586
36.492
36.404
36.336
36.289
36.257
36.234
36.213
36.201
36.201
36.208
36.211
36.21
36.203
36.193
36.19
36.195
36.191
36.179
36.159
36.137
36.123
36.161
36.334
36.707
37.222
37.716
38.026
38.076
37.899
37.598
37.287
37.048
36.915
36.875
36.899
36.95
36.992
37.01
37.015
37.009
36.995
36.993
37.007
37.032
37.046
37.035
37.0
36.937
36.862
36.791
36.745
36.718
36.704
36.695
36.69
36.689
36.688
36.682
36.665
36.647
36.639
36.647
36.661
36.667
36.652
36.615
36.57
36.538
36.555
36.684
36.994
37.462
37.951
38.296
38.408
38.301
38.049
37.76
37.524
37.375
37.308
37.297
37.297
37.267
37.222
37.194
37.207
37.25
37.315
37.381
37.416
37.398
37.325
37.224
37.131
37.059
37.012
36.98
36.958
36.939
36.925
36.908
36.893
36.888
36.9
36.927
36.948
36.943
36.905
36.847
36.796
36.762
36.76
36.825
37.026
37.384
37.813
38.161
38.314
38.253
38.026
37.723
37.428
37.206
37.08
37.037
37.022
36.998
36.97
36.954
36.965
37.011
37.09
37.174
37.225
37.223
37.17
37.087
36.993
36.909
36.843
36.786
36.738
36.702
36.684
36.672
36.662
36.65
36.633
36.605
36.573
36.543
36.53
36.522
36.509
36.483
36.451
36.421
36.417
36.459
36.613
36.937
37.4
37.862
38.167
38.227
38.066
37.789
37.507
37.285
37.15
37.094
37.095
37.121
37.127
37.101
37.06
37.03
37.022
37.04
37.072
37.102
37.107
37.081
37.029
36.965
36.888
36.809
36.745
36.706
36.682
36.655
36.611
36.566
36.533
36.515
36.501
36.493
36.49
36.486
36.484
36.48
36.472
36.459
36.444
36.417
36.378
36.343
36.361
36.518
36.877
37.389
37.897
38.221
38.278
38.097
37.773
37.442
37.212
37.114
37.107
37.127
37.136
37.117
37.07
37.005
36.95
36.93
36.958
37.01
37.051
37.059
37.023
36.959
36.887
36.818
36.753
36.702
36.663
36.626
36.592
36.569
36.556
36.545
36.53
36.511
36.492
36.474
36.454
36.437
36.422
36.406
36.382
36.346
36.299
36.264
36.288
36.435
36.748
37.185
37.615
37.897
37.952
37.79
37.502
37.192
36.949
36.809
36.765
36.771
36.782
36.786
36.78
36.769
36.773
36.81
36.869
36.926
36.957
36.949
36.901
36.828
36.748
36.669
36.589
36.517
36.465
36.427
36.403
36.404
36.42
36.428
36.415
36.393
36.376
36.36
36.344
36.331
36.303
36.266
36.231
36.214
36.252
36.418
36.76
37.22
37.648
37.89
37.887
37.685
37.37
37.048
36.803
36.668
36.63
36.643
36.653
36.641
36.615
36.593
36.603
36.642
36.703
36.766
36.804
36.79
36.732
36.647
36.558
36.472
36.393
36.332
36.297
36.288
36.284
36.266
36.235
36.215
36.218
36.224
36.213
36.183
36.16
36.159
36.164
36.157
36.143
36.131
36.11
36.07
36.026
36.025
36.154
36.492
36.998
37.508
37.834
37.882
37.682
37.347
37.01
36.758
36.629
36.608
36.647
36.694
36.712
36.694
36.655
36.622
36.631
36.684
36.757
36.82
36.843
36.822
36.776
36.716
36.658
36.613
36.57
36.525
36.49
36.465
36.443
36.427
36.425
36.437
36.452
36.452
36.437
36.426
36.422
36.418
36.405
36.39
36.378
36.361
36.323
36.282
36.29
36.406
36.684
37.103
37.553
37.882
37.994
37.883
37.614
37.286
36.987
36.778
36.687
36.684
36.712
36.713
36.697
36.645
36.489
36.272
36.133
36.184
36.393
36.627
36.765
36.776
36.716
36.649
36.58
36.493
36.388
36.288
36.23
36.228
36.26
36.287
36.286
36.248
36.199
36.185
36.224
36.279
36.294
36.253
36.203
36.207
36.296
36.493
36.805
37.191
37.551
37.774
37.803
37.661
37.427
37.18
36.976
36.838
36.755
36.699
36.634
36.557
36.488
36.453
36.47
36.529
36.601
36.642
36.646
36.63
36.628
36.634
36.626
36.581
36.503
36.414
36.333
36.267
36.21
36.167
36.154
36.184
36.232
36.266
36.269
36.247
36.225
36.24
36.349
36.61
37.012
37.443
37.742
37.813
37.676
37.428
37.161
36.931
36.756
36.619
36.493
36.372
36.294
36.285
36.346
36.446
36.564
36.677
36.759
36.802
36.806
36.773
36.71
36.635
36.556
36.476
36.397
36.334
36.296
36.272
36.253
36.246
36.253
36.27
36.288
36.302
36.305
36.292
36.27
36.286
36.428
36.758
37.247
37.752
38.09
38.16
37.969
37.616
37.234
36.921
36.727
36.643
36.628
36.632
36.622
36.608
36.616
36.656
36.729
36.822
36.908
36.964
36.973
36.937
36.87
36.786
36.697
36.616
36.557
36.53
36.529
36.539
36.547
36.547
36.539
36.542
36.565
36.602
36.635
36.649
36.636
36.6
36.572
36.608
36.793
37.176
37.689
38.165
38.43
38.413
38.165
37.806
37.452
37.172
36.997
36.928
36.927
36.943
36.955
36.955
36.956
36.982
37.049
37.151
37.252
37.306
37.293
37.213
37.092
36.965
36.866
36.797
36.757
36.738
36.728
36.717
36.706
36.697
36.691
36.692
36.7
36.71
36.724
36.74
36.746
36.735
36.718
36.695
36.66
36.626
36.649
36.826
37.215
37.754
38.247
38.507
38.466
38.19
37.806
37.431
37.142
36.959
36.867
36.835
36.833
36.844
36.863
36.912
37.006
37.136
37.28
37.398
37.454
37.432
37.347
37.223
37.094
36.98
36.897
36.85
36.828
36.826
36.839
36.852
36.858
36.869
36.887
36.902
36.898
36.879
36.866
36.871
36.876
36.871
36.852
36.832
36.801
36.769
36.782
36.921
37.238
37.67
38.056
38.25
38.202
37.962
37.628
37.299
37.025
36.825
36.7
36.638
36.614
36.617
36.665
36.763
36.895
37.052
37.22
37.363
37.432
37.418
37.342
37.236
37.126
37.023
36.939
36.88
36.855
36.837
36.805
36.767
36.744
36.753
36.775
36.785
36.768
36.728
36.692
36.677
36.674
36.668
36.651
36.62
36.605
36.673
36.895
37.268
37.685
38.005
38.115
37.995
37.704
37.333
36.974
36.676
36.463
36.329
36.242
36.185
36.173
36.227
36.346
36.522
36.719
36.894
37.017
37.072
37.064
37.0
36.897
36.773
36.659
36.568
36.504
36.464
36.439
36.434
36.429
36.416
36.397
36.379
36.378
36.397
36.418
36.424
36.416
36.392
36.353
36.331
36.406
36.646
37.029
37.423
37.677
37.723
37.576
37.296
36.952
36.63
36.386
36.219
36.106
36.028
35.985
35.997
36.067
36.185
36.345
36.538
36.727
36.861
36.912
36.888
36.816
36.715
36.607
36.513
36.448
36.413
36.401
36.401
36.402
36.394
36.379
36.37
36.376
36.391
36.39
36.37
36.338
36.305
36.3
36.393
36.643
37.001
37.352
37.57
37.587
37.426
37.137
36.792
36.467
36.219
36.067
35.998
35.992
36.035
36.117
36.229
36.368
36.532
36.707
36.843
36.905
36.896
36.829
36.72
36.598
36.487
36.395
36.33
36.299
36.304
36.333
36.363
36.373
36.372
36.381
36.396
36.402
36.39
36.372
36.383
36.49
36.735
37.087
37.437
37.648
37.65
37.466
37.161
36.818
36.508
36.284
36.162
36.115
36.11
36.144
36.227
36.341
36.484
36.648
36.806
36.927
36.981
36.956
36.867
36.748
36.623
36.515
36.445
36.429
36.453
36.483
36.496
36.495
36.486
36.467
36.449
36.431
36.409
36.39
36.408
36.533
36.818
37.21
37.544
37.684
37.601
37.359
37.055
36.757
36.51
36.333
36.214
36.139
36.117
36.163
36.274
36.438
36.628
36.815
36.966
37.041
37.037
36.981
36.898
36.795
36.687
36.598
36.537
36.495
36.465
36.45
36.454
36.47
36.477
36.465
36.447
36.425
36.414
36.433
36.543
36.798
37.17
37.545
37.788
37.829
37.677
37.394
37.067
36.772
36.554
36.42
36.36
36.36
36.412
36.506
36.628
36.769
36.915
37.045
37.121
37.124
37.056
36.94
36.805
36.674
36.585
36.543
36.531
36.52
36.506
36.498
36.505
36.518
36.522
36.524
36.524
36.517
36.515
36.55
36.688
36.96
37.322
37.661
37.864
37.874
37.705
37.424
37.106
36.827
36.632
36.516
36.472
36.497
36.573
36.674
36.791
36.929
37.071
37.174
37.204
37.178
37.113
37.025
36.936
36.861
36.819
36.801
36.794
36.789
36.784
36.776
36.77
36.773
36.786
36.799
36.805
36.798
36.785
36.766
36.774
36.882
37.145
37.531
37.904
38.11
38.069
37.809
37.432
37.056
36.774
36.622
36.569
36.573
36.61
36.68
36.783
36.919
37.067
37.192
37.272
37.304
37.283
37.214
37.121
37.023
36.94
36.89
36.869
36.871
36.881
36.887
36.892
36.889
36.884
36.878
36.875
36.876
36.879
36.877
36.867
36.85
36.864
36.997
37.3
37.699
38.034
38.163
38.051
37.76
37.392
37.055
36.811
36.685
36.661
36.695
36.754
36.829
36.935
37.062
37.197
37.315
37.381
37.382
37.337
37.264
37.174
37.075
36.986
36.928
36.915
36.93
36.939
36.93
36.913
36.901
36.894
36.889
36.877
36.855
36.841
36.841
36.841
36.825
36.813
36.879
37.105
37.485
37.885
38.138
38.149
37.93
37.585
37.222
36.933
36.769
36.737
36.796
36.889
36.982
37.074
37.174
37.284
37.39
37.467
37.489
37.446
37.348
37.224
37.114
37.032
36.98
36.951
36.938
36.928
36.92
36.917
36.916
36.919
36.924
36.922
36.921
36.927
36.944
36.958
36.95
36.929
36.897
36.868
36.888
37.045
37.396
37.844
38.189
38.274
38.092
37.745
37.372
37.071
36.889
36.829
36.845
36.886
36.939
37.011
37.122
37.261
37.389
37.473
37.497
37.466
37.397
37.299
37.199
37.113
37.048
36.999
36.955
36.925
36.916
36.929
36.957
36.981
36.99
36.977
36.954
36.93
36.911
36.898
36.893
36.902
36.915
36.925
36.928
36.907
36.871
36.87
37.001
37.318
37.738
38.091
38.219
38.083
37.759
37.361
37.014
36.796
36.737
36.786
36.867
36.938
36.999
37.081
37.188
37.301
37.394
37.44
37.428
37.354
37.237
37.098
36.964
36.868
36.814
36.798
36.805
36.822
36.84
36.847
36.845
36.827
36.798
36.777
36.775
36.784
36.786
36.776
36.76
36.744
36.719
36.691
36.68
36.696
36.726
36.738
36.73
36.753
36.896
37.202
37.602
37.928
38.043
37.909
37.602
37.243
36.927
36.717
36.629
36.636
36.695
36.768
36.842
36.932
37.044
37.163
37.27
37.334
37.344
37.301
37.203
37.069
36.936
36.837
36.788
36.771
36.771
36.776
36.779
36.783
36.789
36.793
36.793
36.789
36.791
36.798
36.803
36.804
36.791
36.771
36.754
36.743
36.748
36.766
36.775
36.753
36.704
36.654
36.654
36.787
37.107
37.541
37.913
38.05
37.904
37.547
37.123
36.763
36.537
36.453
36.467
36.52
36.586
36.66
36.758
36.886
37.028
37.145
37.201
37.193
37.131
37.041
36.938
36.838
36.762
36.718
36.693
36.673
36.666
36.679
36.713
36.751
36.769
36.767
36.759
36.755
36.754
36.755
36.748
36.726
36.701
36.689
36.699
36.72
36.722
36.71
36.684
36.642
36.604
36.63
36.807
37.16
37.59
37.92
38.0
37.809
37.443
37.044
36.718
36.509
36.408
36.387
36.417
36.479
36.566
36.688
36.842
37.003
37.139
37.215
37.214
37.152
37.055
36.94
36.826
36.73
36.672
36.651
36.646
36.645
36.644
36.65
36.663
36.671
36.67
36.664
36.661
36.654
36.635
36.617
36.617
36.628
36.635
36.637
36.631
36.616
36.595
36.571
36.56
36.597
36.748
37.054
37.449
37.796
37.962
37.882
37.598
37.227
36.881
36.633
36.502
36.459
36.47
36.51
36.563
36.646
36.77
36.925
37.075
37.175
37.207
37.165
37.08
36.976
36.87
36.782
36.728
36.708
36.697
36.689
36.689
36.696
36.708
36.727
36.754
36.775
36.776
36.762
36.738
36.702
36.648
36.594
36.56
36.554
36.578
36.612
36.637
36.649
36.647
36.652
36.723
36.93
37.264
37.62
37.85
37.859
37.658
37.321
36.96
36.674
36.5
36.419
36.4
36.418
36.477
36.585
36.736
36.911
37.082
37.21
37.272
37.269
37.207
37.102
36.982
36.856
36.754
36.705
36.714
36.758
36.795
36.797
36.776
36.757
36.749
36.751
36.764
36.777
36.775
36.761
36.739
36.723
36.717
36.722
36.737
36.757
36.763
36.733
36.672
36.616
36.637
36.825
37.19
37.621
37.939
38.017
37.84
37.499
37.123
36.805
36.586
36.477
36.447
36.476
36.547
36.659
36.816
37.01
37.208
37.37
37.466
37.478
37.412
37.302
37.177
37.061
36.965
36.903
36.883
36.893
36.92
36.954
36.973
36.969
36.95
36.946
36.963
36.993
37.027
37.051
37.044
37.004
36.961
36.936
36.937
36.949
36.954
36.948
36.942
36.957
37.057
37.304
37.665
38.017
38.223
38.216
38.023
37.729
37.427
37.165
36.979
36.878
36.857
36.904
37.009
37.153
37.318
37.488
37.647
37.773
37.838
37.824
37.735
37.598
37.449
37.327
37.253
37.223
37.229
37.244
37.246
37.231
37.207
37.19
37.185
37.184
37.18
37.168
37.157
37.15
37.155
37.169
37.186
37.197
37.197
37.175
37.138
37.122
37.205
37.455
37.859
38.279
38.528
38.512
38.272
37.917
37.565
37.285
37.105
37.023
37.018
37.074
37.171
37.304
37.464
37.631
37.779
37.888
37.946
37.933
37.845
37.717
37.588
37.476
37.395
37.354
37.339
37.335
37.343
37.363
37.384
37.395
37.384
37.36
37.33
37.303
37.282
37.266
37.256
37.236
37.201
37.174
37.159
37.142
37.141
37.251
37.555
38.012
38.463
38.733
38.729
38.485
38.12
37.767
37.509
37.366
37.339
37.391
37.469
37.536
37.606
37.71
37.847
37.999
38.136
38.215
38.211
38.119
37.964
37.801
37.675
37.605
37.59
37.601
37.61
37.618
37.622
37.614
37.591
37.567
37.557
37.565
37.577
37.581
37.565
37.533
37.505
37.5
37.497
37.48
37.452
37.448
37.546
37.834
38.295
38.759
39.03
39.02
38.783
38.442
38.114
37.872
37.753
37.74
37.79
37.87
37.966
38.089
38.235
38.372
38.478
38.541
38.548
38.484
38.366
38.226
38.101
38.0
37.923
37.872
37.834
37.794
37.762
37.747
37.755
37.779
37.806
37.813
37.794
37.763
37.722
37.693
37.692
37.7
37.706
37.696
37.662
37.609
37.544
37.496
37.527
37.725
38.12
38.62
39.042
39.227
39.131
38.847
38.503
38.206
38.012
37.931
37.92
37.947
37.993
38.059
38.152
38.274
38.402
38.499
38.545
38.529
38.449
38.339
38.228
38.14
38.092
38.076
38.068
38.054
38.028
38.005
37.993
37.985
37.979
37.959
37.93
37.9
37.864
37.822
37.778
37.738
37.719
37.708
37.696
37.678
37.657
37.64
37.614
37.583
37.545
37.52
37.563
37.765
38.168
38.676
39.087
39.244
39.114
38.781
38.4
38.092
37.912
37.854
37.865
37.901
37.946
38.009
38.111
38.236
38.348
38.419
38.428
38.371
38.256
38.119
37.996
37.907
37.845
37.802
37.769
37.752
37.74
37.715
37.678
37.653
37.647
37.65
37.647
37.634
37.599
37.538
37.473
37.434
37.421
37.415
37.403
37.387
37.366
37.337
37.307
37.286
37.263
37.22
37.166
37.16
37.301
37.659
38.167
38.634
38.867
38.8
38.496
38.1
37.743
37.49
37.361
37.347
37.395
37.454
37.523
37.625
37.777
37.942
38.07
38.125
38.098
38.007
37.87
37.727
37.605
37.51
37.45
37.419
37.401
37.38
37.346
37.311
37.283
37.267
37.262
37.261
37.253
37.231
37.203
37.169
37.134
37.117
37.113
37.109
37.099
37.075
37.036
36.99
36.949
36.917
36.883
36.845
36.828
36.893
37.125
37.549
38.034
38.378
38.452
38.26
37.909
37.53
37.215
37.02
36.948
36.958
36.991
37.024
37.076
37.17
37.306
37.461
37.586
37.64
37.602
37.494
37.36
37.244
37.158
37.097
37.068
37.063
37.065
37.064
37.056
37.044
37.026
37.005
36.978
36.949
36.93
36.922
36.913
36.903
36.889
36.875
36.865
36.867
36.879
36.871
36.822
36.748
36.671
36.608
36.593
36.672
36.891
37.238
37.613
37.874
37.922
37.77
37.505
37.213
36.954
36.756
36.629
36.564
36.54
36.565
36.644
36.781
36.967
37.165
37.318
37.384
37.374
37.314
37.224
37.112
36.998
36.901
36.829
36.78
36.751
36.737
36.743
36.767
36.787
36.797
36.793
36.778
36.759
36.741
36.728
36.727
36.73
36.727
36.727
36.734
36.752
36.764
36.751
36.714
36.67
36.657
36.751
36.993
37.338
37.677
37.883
37.895
37.737
37.488
37.217
36.973
36.786
36.664
36.624
36.649
36.728
36.848
36.996
37.164
37.341
37.493
37.576
37.566
37.485
37.372
37.256
37.164
37.102
37.066
37.047
37.047
37.057
37.066
37.075
37.088
37.093
37.083
37.069
37.062
37.057
37.05
37.042
37.03
37.021
37.025
37.042
37.045
37.018
37.002
37.083
37.328
37.71
38.092
38.319
38.302
38.07
37.737
37.417
37.163
36.989
36.898
36.873
36.888
36.933
37.009
37.121
37.266
37.422
37.549
37.608
37.592
37.525
37.437
37.345
37.259
37.192
37.153
37.14
37.152
37.172
37.179
37.166
37.146
37.133
37.124
37.111
37.09
37.054
37.013
36.985
36.975
36.972
36.958
36.957
37.05
37.311
37.716
38.12
38.361
38.36
38.161
37.876
37.588
37.337
37.159
37.057
37.017
37.036
37.109
37.213
37.332
37.468
37.621
37.751
37.827
37.822
37.749
37.629
37.482
37.347
37.26
37.222
37.212
37.213
37.219
37.22
37.213
37.207
37.203
37.2
37.189
37.171
37.137
37.091
37.044
37.015
37.045
37.212
37.543
37.948
38.273
38.405
38.324
38.077
37.759
37.462
37.243
37.114
37.063
37.068
37.095
37.144
37.238
37.373
37.526
37.658
37.734
37.737
37.66
37.529
37.381
37.254
37.177
37.142
37.131
37.123
37.109
37.098
37.083
37.064
37.047
37.04
37.037
37.029
37.007
36.971
36.922
36.879
36.881
36.992
37.27
37.673
38.05
38.25
38.219
37.999
37.684
37.367
37.121
36.978
36.921
36.921
36.948
36.991
37.072
37.201
37.357
37.505
37.602
37.617
37.548
37.423
37.285
37.163
37.071
37.01
36.974
36.954
36.941
36.937
36.939
36.946
36.953
36.953
36.935
36.901
36.863
36.83
36.809
36.792
36.765
36.754
36.833
37.059
37.383
37.681
37.824
37.755
37.506
37.165
36.837
36.606
36.49
36.461
36.48
36.52
36.596
36.73
36.905
37.076
37.213
37.29
37.293
37.234
37.143
37.037
36.936
36.868
36.834
36.826
36.837
36.851
36.855
36.851
36.858
36.875
36.883
36.88
36.878
36.873
36.868
36.868
36.86
36.833
36.802
36.781
36.792
36.9
37.146
37.48
37.776
37.926
37.898
37.716
37.449
37.189
36.976
36.832
36.76
36.76
36.815
36.909
37.041
37.191
37.325
37.411
37.433
37.387
37.292
37.176
37.062
36.968
36.906
36.873
36.866
36.879
36.905
36.925
36.924
36.914
36.906
36.897
36.876
36.849
36.837
36.839
36.834
36.811
36.782
36.752
36.722
36.705
36.759
36.947
37.259
37.575
37.759
37.75
37.57
37.294
37.008
36.773
36.618
36.547
36.535
36.56
36.628
36.736
36.876
37.034
37.173
37.253
37.256
37.185
37.049
36.889
36.756
36.678
36.648
36.642
36.639
36.629
36.614
36.612
36.622
36.627
36.616
36.605
36.605
36.606
36.599
36.579
36.55
36.521
36.502
36.484
36.474
36.517
36.672
36.96
37.313
37.59
37.668
37.531
37.253
36.931
36.654
36.469
36.391
36.384
36.41
36.447
36.506
36.62
36.783
36.953
37.066
37.08
37.008
36.887
36.767
36.673
36.602
36.546
36.501
36.47
36.457
36.465
36.476
36.486
36.487
36.475
36.461
36.454
36.446
36.424
36.401
36.384
36.367
36.345
36.312
36.283
36.305
36.435
36.691
37.021
37.31
37.443
37.375
37.155
36.87
36.594
36.376
36.239
36.175
36.167
36.205
36.28
36.398
36.55
36.703
36.819
36.879
36.878
36.817
36.718
36.603
36.494
36.405
36.355
36.334
36.317
36.31
36.313
36.323
36.338
36.347
36.34
36.327
36.328
36.333
36.336
36.344
36.342
36.315
36.28
36.272
36.339
36.527
36.812
37.1
37.28
37.298
37.16
36.913
36.641
36.404
36.233
36.143
36.124
36.147
36.193
36.273
36.401
36.569
36.735
36.854
36.899
36.859
36.75
36.615
36.495
36.411
36.353
36.314
36.302
36.318
36.347
36.369
36.372
36.358
36.34
36.324
36.316
36.313
36.306
36.281
36.254
36.237
36.246
36.322
36.514
36.81
37.12
37.336
37.379
37.239
36.979
36.681
36.414
36.226
36.122
36.086
36.104
36.162
36.258
36.407
36.593
36.763
36.866
36.884
36.836
36.749
36.651
36.567
36.513
36.497
36.497
36.5
36.509
36.524
36.53
36.524
36.513
36.491
36.458
36.419
36.386
36.36
36.342
36.345
36.399
36.55
36.805
37.098
37.321
37.391
37.292
37.065
36.789
36.533
36.326
36.177
36.103
36.107
36.178
36.306
36.472
36.662
36.848
36.985
37.034
36.99
36.877
36.736
36.619
36.553
36.524
36.512
36.495
36.469
36.44
36.428
36.437
36.453
36.469
36.466
36.441
36.414
36.4
36.414
36.494
36.677
36.947
37.213
37.366
37.349
37.174
36.919
36.672
36.477
36.352
36.285
36.27
36.298
36.368
36.497
36.669
36.837
36.96
37.007
36.973
36.876
36.749
36.63
36.54
36.488
36.471
36.478
36.5
36.523
36.54
36.54
36.524
36.507
36.49
36.478
36.489
36.557
36.722
36.99
37.291
37.509
37.56
37.438
37.21
36.956
36.738
36.584
36.501
36.478
36.494
36.545
36.64
36.777
36.937
37.07
37.125
37.087
36.989
36.869
36.764
36.692
36.645
36.612
36.595
36.606
36.629
36.645
36.642
36.623
36.596
36.57
36.553
36.539
36.562
36.685
36.945
37.292
37.587
37.706
37.615
37.369
37.068
36.811
36.658
36.602
36.601
36.621
36.658
36.727
36.835
36.967
37.087
37.16
37.166
37.108
37.016
36.92
36.837
36.763
36.705
36.668
36.653
36.668
36.702
36.726
36.723
36.703
36.686
36.674
36.655
36.626
36.594
36.584
36.645
36.834
37.156
37.506
37.749
37.797
37.644
37.367
37.072
36.844
36.723
36.697
36.723
36.767
36.837
36.943
37.077
37.209
37.307
37.351
37.324
37.239
37.128
37.019
36.931
36.876
36.853
36.846
36.849
36.85
36.843
36.836
36.83
36.829
36.836
36.844
36.839
36.828
36.81
36.778
36.743
36.727
36.783
36.977
37.311
37.679
37.927
37.951
37.76
37.457
37.157
36.946
36.851
36.837
36.865
36.916
36.986
37.081
37.187
37.29
37.368
37.396
37.358
37.263
37.152
37.056
36.983
36.927
36.885
36.862
36.855
36.868
36.892
36.906
36.896
36.867
36.831
36.81
36.817
36.837
36.85
36.843
36.811
36.771
36.738
36.719
36.722
36.805
37.035
37.391
37.759
37.984
37.979
37.773
37.471
37.18
36.968
36.86
36.839
36.864
36.919
36.999
37.099
37.217
37.334
37.415
37.437
37.391
37.287
37.157
37.031
36.939
36.883
36.86
36.865
36.871
36.859
36.832
36.804
36.793
36.799
36.802
36.795
36.783
36.767
36.746
36.733
36.733
36.734
36.722
36.699
36.664
36.63
36.609
36.608
36.647
36.794
37.094
37.478
37.797
37.907
37.777
37.486
37.153
36.875
36.717
36.679
36.706
36.755
36.817
36.9
37.014
37.144
37.241
37.276
37.252
37.177
37.076
36.978
36.899
36.845
36.805
36.781
36.768
36.763
36.769
36.774
36.768
36.748
36.718
36.694
36.691
36.701
36.709
36.714
36.708
36.705
36.706
36.707
36.697
36.677
36.647
36.609
36.564
36.534
36.599
36.861
37.313
37.785
38.065
38.046
37.771
37.382
37.023
36.788
36.694
36.711
36.788
36.877
36.96
37.035
37.11
37.176
37.221
37.226
37.181
37.094
36.988
36.891
36.816
36.762
36.736
36.737
36.747
36.755
36.764
36.765
36.751
36.735
36.731
36.734
36.731
36.718
36.691
36.662
36.649
36.648
36.644
36.632
36.62
36.624
36.639
36.637
36.602
36.547
36.528
36.641
36.954
37.405
37.814
38.005
37.905
37.576
37.176
36.851
36.669
36.628
36.678
36.757
36.835
36.918
37.006
37.087
37.156
37.205
37.214
37.179
37.104
36.998
36.894
36.811
36.759
36.733
36.727
36.729
36.741
36.758
36.766
36.766
36.753
36.735
36.716
36.701
36.68
36.651
36.626
36.614
36.605
36.601
36.604
36.596
36.564
36.522
36.502
36.503
36.515
36.542
36.654
36.918
37.298
37.647
37.806
37.711
37.414
37.035
36.704
36.497
36.437
36.476
36.535
36.58
36.603
36.619
36.664
36.743
36.808
36.758
36.575
36.342
36.174
36.104
36.087
36.083
36.099
36.16
36.259
36.363
36.437
36.47
36.485
36.505
36.536
36.571
36.603
36.622
36.615
36.58
36.533
36.497
36.49
36.511
36.53
36.519
36.471
36.395
36.311
36.236
36.179
36.136
36.117
36.148
36.249
36.404
36.544
36.584
36.473
36.234
35.927
35.615
35.345
35.124
34.937
34.77
34.629
34.529
34.472
34.446
34.443
34.446
34.418
34.334
34.181
33.972
33.742
33.531
33.361
33.236
33.138
33.046
32.96
32.879
32.794
32.72
32.66
32.617
32.584
32.554
32.524
32.49
32.45
32.398
32.337
32.281
32.237
32.211
32.195
32.207
32.287
32.463
32.707
32.921
33.009
32.932
32.721
32.454
32.207
32.025
31.91
31.851
31.842
31.871
31.92
31.993
32.093
32.199
32.293
32.374
32.429
32.444
32.413
32.36
32.297
32.234
32.189
32.162
32.148
32.142
32.147
32.161
32.183
32.218
32.258
32.301
32.344
32.382
32.399
32.397
32.396
32.415
32.486
32.677
33.02
33.451
33.826
34.001
33.929
33.664
33.318
32.994
32.762
32.635
32.582
32.576
32.603
32.648
32.709
32.795
32.9
33.014
33.105
33.138
33.105
33.025
32.918
32.816
32.738
32.675
32.612
32.551
32.512
32.497
32.493
32.48
32.454
32.425
32.408
32.405
32.409
32.456
32.623
32.969
33.446
33.912
34.209
34.247
34.043
33.703
33.366
33.144
33.065
33.087
33.154
33.226
33.281
33.311
33.329
33.359
33.41
33.473
33.534
33.579
33.593
33.573
33.534
33.5
33.478
33.459
33.44
33.425
33.42
33.428
33.441
33.453
33.457
33.439
33.401
33.361
33.341
33.375
33.55
33.952
34.534
35.082
35.388
35.38
35.139
34.827
34.58
34.454
34.439
34.498
34.58
34.623
34.594
34.507
34.408
34.345
34.334
34.372
34.436
34.492
34.516
34.508
34.475
34.43
34.386
34.347
34.316
34.295
34.284
34.27
34.25
34.243
34.246
34.235
34.203
34.164
34.142
34.138
34.139
34.134
34.117
34.094
34.075
34.066
34.122
34.362
34.849
35.484
36.046
36.341
36.339
36.156
35.932
35.776
35.732
35.78
35.87
35.946
35.953
35.867
35.709
35.533
35.416
35.39
35.435
35.507
35.565
35.585
35.56
35.503
35.43
35.354
35.297
35.269
35.262
35.252
35.228
35.202
35.187
35.191
35.208
35.223
35.222
35.21
35.181
35.153
35.148
35.163
35.182
35.184
35.176
35.168
35.164
35.175
35.197
35.209
35.19
35.152
35.106
35.062
35.087
35.306
35.81
36.517
37.191
37.587
37.623
37.404
37.109
36.894
36.814
36.839
36.9
36.93
