36.467
36.449
36.435
36.371
36.258
36.186
36.213
36.32
36.443
36.531
36.571
36.554
36.524
36.483
36.41
36.302
36.17
36.008
35.853
35.743
35.653
35.583
35.519
35.458
35.395
35.371
35.385
35.391
35.365
35.351
35.37
35.413
35.423
35.403
35.369
35.326
35.259
35.207
35.196
35.205
35.2
35.182
35.177
35.187
35.26
35.488
35.989
36.726
37.52
38.134
38.395
38.306
37.989
37.582
37.152
36.763
36.479
36.302
36.19
36.068
35.933
35.867
35.914
36.058
36.268
36.48
36.614
36.647
36.608
36.516
36.389
36.265
36.124
35.964
35.823
35.709
35.618
35.55
35.478
35.395
35.337
35.329
35.351
35.391
35.431
35.463
35.452
35.418
35.402
35.409
35.424
35.412
35.395
35.377
35.331
35.278
35.247
35.286
35.489
35.937
36.623
37.417
38.068
38.356
38.249
37.906
37.471
37.049
36.692
36.412
36.196
36.043
35.953
35.873
35.796
35.79
35.873
36.026
36.184
36.306
36.366
36.372
36.319
36.185
36.023
35.875
35.75
35.649
35.555
35.468
35.398
35.331
35.273
35.229
35.182
35.13
35.103
35.112
35.184
35.284
35.375
35.404
35.313
35.166
35.085
35.117
35.17
35.119
35.005
34.913
34.945
35.267
35.971
36.931
37.821
38.367
38.493
38.308
37.918
37.446
37.019
36.717
36.558
36.477
36.418
36.319
36.177
36.054
35.994
36.027
36.146
36.311
36.483
36.612
36.661
36.618
36.471
36.236
36.0
35.848
35.776
35.697
35.585
35.508
35.455
35.399
35.349
35.318
35.312
35.311
35.315
35.339
35.381
35.422
35.451
35.461
35.457
35.421
35.366
35.298
35.248
35.219
35.2
35.18
35.231
35.53
36.179
37.043
37.897
38.482
38.658
38.471
38.099
37.662
37.22
36.842
36.583
36.451
36.408
36.395
36.358
36.317
36.306
36.32
36.349
36.403
36.463
36.499
36.526
36.524
36.466
36.368
36.256
36.111
35.942
35.766
35.594
35.467
35.41
35.394
35.394
35.375
35.364
35.409
35.478
35.555
35.604
35.612
35.587
35.541
35.462
35.372
35.336
35.361
35.416
35.446
35.409
35.331
35.27
35.305
35.527
36.049
36.863
37.762
38.459
38.804
38.773
38.439
37.962
37.508
37.16
36.916
36.735
36.598
36.481
36.371
36.308
36.291
36.339
36.473
36.632
36.753
36.811
36.792
36.764
36.748
36.683
36.532
36.313
36.102
35.964
35.877
35.83
35.772
35.691
35.653
35.67
35.7
35.729
35.739
35.728
35.738
35.752
35.743
35.731
35.715
35.741
35.765
35.717
35.646
35.607
35.634
35.766
36.112
36.737
37.528
38.241
38.624
38.613
38.299
37.864
37.448
37.113
36.855
36.622
36.393
36.186
36.024
35.944
36.005
36.184
36.423
36.671
36.871
36.979
36.99
36.936
36.828
36.684
36.517
36.323
36.131
36.008
35.965
35.931
35.868
35.79
35.722
35.631
35.576
35.631
35.76
35.841
35.837
35.79
35.766
35.774
35.777
35.746
35.688
35.65
35.695
35.949
36.54
37.394
38.237
38.755
38.858
38.663
38.304
37.881
37.455
37.072
36.776
36.595
36.465
36.312
36.143
36.043
36.087
36.251
36.488
36.746
36.963
37.1
37.127
37.052
36.914
36.742
36.56
36.409
36.252
36.062
35.884
35.79
35.742
35.698
35.649
35.597
35.587
35.639
35.719
35.773
35.802
35.839
35.859
35.86
35.842
35.772
35.694
35.709
35.909
36.418
37.259
38.241
39.022
39.375
39.323
39.018
38.643
38.28
37.929
37.596
37.305
37.072
36.883
36.752
36.67
36.619
36.629
36.722
36.847
36.965
37.101
37.23
37.291
37.219
37.012
36.754
36.557
36.459
36.393
36.291
36.132
35.945
35.788
35.694
35.669
35.692
35.713
35.707
35.662
35.615
35.607
35.656
35.707
35.741
35.723
35.636
35.53
35.501
35.534
35.544
35.495
35.5
35.806
36.543
37.598
38.682
39.485
39.848
39.786
39.41
38.91
38.45
38.102
37.861
37.697
37.585
37.497
37.38
37.218
37.069
37.004
37.037
37.104
37.187
37.249
37.284
37.293
37.239
37.112
36.938
36.741
36.561
36.423
36.323
36.231
36.133
36.05
35.96
35.877
35.833
35.809
35.76
35.709
35.659
35.605
35.59
35.602
35.605
35.611
35.589
35.527
35.476
35.461
35.438
35.369
35.27
35.174
35.254
35.667
36.492
37.612
38.691
39.437
39.752
39.669
39.32
38.872
38.48
38.161
37.89
37.664
37.519
37.445
37.381
37.275
37.165
37.076
37.088
37.219
37.376
37.501
37.547
37.485
37.362
37.213
37.05
36.89
36.765
36.692
36.607
36.474
36.281
36.091
35.976
35.944
35.991
36.069
36.107
36.051
35.946
35.877
35.859
35.83
35.8
35.79
35.815
35.858
35.876
35.867
35.857
35.819
35.721
35.654
35.748
36.22
37.134
38.271
39.29
39.894
40.014
39.775
39.367
38.934
38.536
38.176
37.868
37.643
37.48
37.352
37.263
37.205
37.175
37.194
37.275
37.399
37.525
37.644
37.766
37.82
37.767
37.607
37.394
37.188
36.986
36.802
36.652
36.476
36.268
36.117
36.051
36.034
36.038
36.036
36.022
36.005
35.991
35.987
35.994
35.988
35.97
35.978
35.981
35.942
35.83
35.752
35.892
36.39
37.251
38.288
39.185
39.69
39.73
39.461
39.06
38.636
38.237
37.895
37.624
37.416
37.217
36.996
36.829
36.777
36.85
37.037
37.301
37.582
37.797
37.907
37.932
37.895
37.786
37.592
37.339
37.105
36.925
36.759
36.62
36.506
36.371
36.229
36.162
36.19
36.24
36.218
36.102
36.008
36.004
36.058
36.104
36.099
36.018
35.927
35.978
36.278
36.899
37.779
38.686
39.369
39.657
39.545
39.155
38.673
38.24
37.913
37.677
37.506
37.337
37.152
36.962
36.828
36.857
37.014
37.22
37.432
37.603
37.703
37.697
37.604
37.471
37.341
37.206
37.035
36.869
36.71
36.537
36.353
36.191
36.066
35.975
35.902
35.856
35.834
35.838
35.865
35.873
35.83
35.766
35.744
35.73
35.739
35.946
36.515
37.47
38.56
39.486
39.991
40.084
39.867
39.496
39.137
38.797
38.465
38.196
38.049
37.971
37.852
37.687
37.548
37.496
37.526
37.599
37.693
37.792
37.842
37.779
37.623
37.459
37.304
37.173
37.067
36.927
36.747
36.597
36.47
36.378
36.275
36.14
36.046
36.033
36.034
35.988
35.921
35.878
35.888
35.891
35.843
35.754
35.661
35.59
35.54
35.488
35.416
35.419
35.705
36.432
37.556
38.78
39.743
40.24
40.277
40.007
39.603
39.203
38.871
38.628
38.465
38.359
38.281
38.191
38.066
37.916
37.802
37.782
37.802
37.815
37.838
37.845
37.826
37.789
37.726
37.583
37.36
37.13
36.949
36.808
36.691
36.608
36.527
36.435
36.343
36.25
36.179
36.158
36.147
36.123
36.093
36.046
35.96
35.864
35.796
35.779
35.771
35.745
35.693
35.628
35.511
35.334
35.185
35.167
35.457
36.209
37.381
38.682
39.72
40.24
40.267
39.956
39.533
39.172
38.905
38.7
38.551
38.453
38.349
38.217
38.082
37.955
37.878
37.876
37.944
38.057
38.171
38.221
38.166
38.045
37.916
37.768
37.594
37.412
37.243
37.085
36.934
36.785
36.632
36.532
36.487
36.448
36.411
36.364
36.288
36.216
36.188
36.212
36.256
36.269
36.193
36.042
35.887
35.784
35.766
35.763
35.74
35.69
35.574
35.456
35.429
35.669
36.327
37.385
38.588
39.575
40.125
40.199
39.922
39.474
39.01
38.636
38.388
38.189
38.02
37.864
37.692
37.525
37.424
37.436
37.579
37.807
37.997
38.085
38.07
38.014
37.92
37.734
37.479
37.228
37.024
36.884
36.745
36.579
36.45
36.359
36.286
36.229
36.18
36.143
36.1
36.048
36.016
35.967
35.896
35.813
35.707
35.61
35.536
35.474
35.421
35.361
35.249
35.108
35.028
35.129
35.548
36.35
37.396
38.386
39.06
39.295
39.098
38.652
38.187
37.806
37.486
37.205
36.954
36.73
36.515
36.327
36.26
36.359
36.577
36.824
37.024
37.182
37.289
37.315
37.236
37.073
36.859
36.651
36.476
36.33
36.172
36.019
35.9
35.814
35.726
35.637
35.589
35.57
35.564
35.551
35.532
35.534
35.541
35.513
35.448
35.395
35.369
35.355
35.338
35.314
35.347
35.552
36.101
37.009
38.028
38.843
39.256
39.233
38.928
38.511
38.073
37.677
37.375
37.131
36.933
36.771
36.642
36.527
36.452
36.479
36.601
36.739
36.88
37.014
37.134
37.173
37.102
36.935
36.728
36.498
36.276
36.084
35.92
35.771
35.613
35.456
35.308
35.193
35.122
35.131
35.181
35.188
35.139
35.075
35.045
35.056
35.088
35.108
35.081
34.999
34.903
34.839
34.797
34.837
35.161
35.966
37.183
38.43
39.312
39.64
39.489
39.086
38.643
38.274
37.985
37.72
37.434
37.134
36.878
36.704
36.633
36.651
36.698
36.727
36.762
36.846
36.968
37.104
37.175
37.124
36.977
36.78
36.58
36.382
36.175
35.985
35.785
35.607
35.494
35.435
35.392
35.341
35.267
35.165
35.04
34.964
34.977
34.998
34.963
34.888
34.817
34.797
34.788
34.765
34.728
34.666
34.594
34.501
34.381
34.328
34.499
35.073
36.13
37.453
38.585
39.222
39.335
39.108
38.74
38.328
37.888
37.45
37.097
36.877
36.709
36.55
36.416
36.307
36.226
36.215
36.282
36.367
36.423
36.453
36.471
36.474
36.415
36.287
36.127
35.924
35.666
35.403
35.184
35.039
34.951
34.881
34.816
34.768
34.736
34.691
34.653
34.618
34.609
34.598
34.552
34.495
34.466
34.496
34.566
34.589
34.544
34.468
34.399
34.359
34.342
34.304
34.228
34.158
34.28
34.808
35.769
36.951
38.053
38.799
39.043
38.851
38.406
37.877
37.356
36.907
36.569
36.37
36.267
36.204
36.144
36.045
35.917
35.845
35.903
36.057
36.197
36.279
36.312
36.271
36.174
36.061
35.95
35.847
35.7
35.515
35.33
35.184
35.074
35.027
34.985
34.917
34.874
34.889
34.95
35.036
35.087
35.078
35.031
34.968
34.894
34.818
34.766
34.753
34.766
34.795
34.824
34.803
34.733
34.645
34.563
34.523
34.663
35.159
36.088
37.287
38.379
39.003
39.066
38.774
38.358
37.947
37.598
37.273
36.971
36.699
36.486
36.342
36.201
36.029
35.928
35.992
36.211
36.477
36.667
36.747
36.762
36.75
36.715
36.621
36.436
36.179
35.919
35.703
35.532
35.409
35.337
35.307
35.284
35.26
35.24
35.22
35.187
35.166
35.164
35.166
35.135
35.1
35.086
35.081
35.08
35.071
35.03
34.962
34.877
34.788
34.779
34.94
35.372
36.159
37.131
38.02
38.623
38.8
38.565
38.124
37.641
37.208
36.831
36.486
36.184
35.954
35.774
35.649
35.606
35.667
35.822
36.067
36.371
36.64
36.795
36.805
36.721
36.576
36.402
36.201
35.997
35.82
35.68
35.543
35.409
35.317
35.27
35.28
35.293
35.273
35.223
35.178
35.188
35.22
35.263
35.31
35.33
35.26
35.159
35.069
34.996
34.967
35.066
35.386
36.008
36.888
37.759
38.389
38.64
38.537
38.197
37.751
37.302
36.921
36.591
36.292
36.038
35.834
35.695
35.643
35.71
35.872
36.091
36.352
36.608
36.791
36.856
36.81
36.712
36.599
36.422
36.178
35.938
35.744
35.592
35.485
35.428
35.389
35.366
35.367
35.359
35.344
35.344
35.343
35.319
35.302
35.308
35.307
35.269
35.201
35.165
35.305
35.79
36.615
37.567
38.365
38.794
38.844
38.648
38.316
37.916
37.518
37.157
36.835
36.566
36.377
36.234
36.113
36.046
36.077
36.21
36.412
36.63
36.792
36.893
36.933
36.869
36.703
36.501
36.307
36.143
36.034
35.905
35.726
35.553
35.456
35.426
35.424
35.422
35.442
35.446
35.411
35.368
35.331
35.322
35.33
35.366
35.387
35.349
35.256
35.19
35.233
35.558
36.294
37.326
38.373
39.135
39.469
39.411
39.107
38.716
38.324
37.983
37.732
37.555
37.415
37.268
37.109
36.991
36.932
36.921
36.947
37.023
37.13
37.215
37.254
37.248
37.181
37.035
36.833
36.637
36.471
36.339
36.237
36.128
36.002
35.879
35.795
35.729
35.688
35.671
35.677
35.674
35.635
35.599
35.604
35.625
35.609
35.538
35.42
35.277
35.202
35.346
35.831
36.674
37.753
38.804
39.531
39.783
39.624
39.25
38.846
38.482
38.208
38.019
37.886
37.8
37.732
37.637
37.516
37.386
37.295
37.263
37.284
37.324
37.349
37.359
37.356
37.313
37.209
37.057
36.868
36.688
36.564
36.488
36.422
36.337
36.226
36.121
36.066
36.049
36.022
35.983
35.935
35.878
35.82
35.755
35.718
35.695
35.661
35.611
35.568
35.556
35.66
36.062
36.844
37.878
38.873
39.565
39.814
39.657
39.28
38.889
38.571
38.314
38.107
37.949
37.838
37.741
37.623
37.508
37.415
37.363
37.391
37.498
37.6
37.657
37.674
37.639
37.516
37.33
37.128
36.967
36.859
36.77
36.65
36.511
36.379
36.27
36.237
36.285
36.337
36.351
36.324
36.286
36.242
36.178
36.079
35.944
35.795
35.679
35.662
35.751
36.01
36.58
37.451
38.361
39.012
39.263
39.134
38.788
38.389
38.035
37.758
37.556
37.402
37.239
37.068
36.954
36.89
36.891
36.976
37.081
37.185
37.282
37.353
37.351
37.277
37.153
36.987
36.796
36.601
36.396
36.222
36.13
36.087
36.048
35.98
35.874
35.79
35.759
35.77
35.782
35.785
35.778
35.757
35.717
35.647
35.544
35.458
35.444
35.573
35.965
36.681
37.598
38.44
38.957
39.051
38.801
38.391
37.953
37.574
37.319
37.168
37.028
36.891
36.792
36.722
36.656
36.621
36.642
36.731
36.853
36.977
37.037
36.972
36.794
36.58
36.413
36.324
36.244
36.106
35.945
35.822
35.75
35.679
35.57
35.467
35.43
35.437
35.454
35.475
35.487
35.472
35.424
35.364
35.319
35.291
35.251
35.191
35.088
34.968
34.873
34.865
35.015
35.468
36.314
37.409
38.411
39.03
39.182
38.989
38.625
38.208
37.803
37.523
37.395
37.358
37.328
37.272
37.175
37.017
36.871
36.813
36.835
36.87
36.87
36.853
36.825
36.773
36.669
36.536
36.403
36.302
36.219
36.072
35.875
35.739
35.689
35.663
35.62
35.561
35.468
35.374
35.327
35.342
35.373
35.353
35.282
35.221
35.196
35.185
35.176
35.144
35.089
35.032
34.968
34.897
34.841
34.881
35.169
35.824
36.819
37.903
38.763
39.193
39.165
38.804
38.338
37.947
37.649
37.415
37.237
37.122
37.05
36.973
36.862
36.757
36.707
36.726
36.804
36.903
36.963
36.963
36.917
36.842
36.717
36.558
36.388
36.244
36.115
35.97
35.804
35.64
35.549
35.564
35.607
35.583
35.499
35.447
35.46
35.513
35.55
35.53
35.459
35.379
35.344
35.367
35.381
35.376
35.364
35.314
35.252
35.181
35.093
35.023
35.064
35.382
36.121
37.199
38.321
39.12
39.39
39.214
38.836
38.396
37.983
37.653
37.414
37.24
37.121
37.04
36.952
36.83
36.733
36.718
36.78
36.881
36.965
37.016
37.048
37.056
37.031
36.955
36.802
36.585
36.369
36.214
36.118
36.015
35.884
35.761
35.685
35.653
35.651
35.65
35.64
35.625
35.616
35.611
35.599
35.56
35.524
35.518
35.508
35.461
35.384
35.314
35.248
35.194
35.213
35.438
35.995
36.89
37.902
38.708
39.108
39.075
38.725
38.236
37.769
37.378
37.045
36.763
36.528
36.338
36.187
36.077
36.065
36.171
36.365
36.621
36.858
37.009
37.066
37.003
36.835
36.636
36.442
36.27
36.112
35.969
35.839
35.68
35.49
35.362
35.328
35.331
35.336
35.333
35.289
35.203
35.153
35.193
35.267
35.316
35.33
35.307
35.228
35.131
35.136
35.37
35.938
36.824
37.827
38.651
39.038
38.981
38.653
38.23
37.773
37.366
37.046
36.766
36.488
36.235
36.031
35.924
35.933
36.029
36.178
36.345
36.498
36.615
36.676
36.673
36.615
36.488
36.264
35.984
35.739
35.586
35.479
35.356
35.222
35.108
35.041
35.014
35.009
35.048
35.116
35.153
35.163
35.158
35.133
35.093
35.037
34.973
34.92
34.903
34.905
34.89
34.905
35.128
35.738
36.753
37.961
39.007
39.582
39.64
39.332
38.843
38.313
37.85
37.508
37.254
37.073
36.958
36.864
36.779
36.711
36.696
36.748
36.86
36.997
37.119
37.193
37.198
37.133
37.022
36.881
36.718
36.544
36.36
36.168
36.001
35.899
35.848
35.793
35.7
35.658
35.678
35.716
35.747
35.765
35.755
35.713
35.679
35.641
35.602
35.602
35.608
35.592
35.568
35.675
36.137
37.008
38.03
38.838
39.236
39.24
38.979
38.571
38.092
37.616
37.216
36.911
36.685
36.545
36.446
36.346
36.29
36.353
36.549
36.803
37.035
37.204
37.237
37.141
37.002
36.871
36.717
36.554
36.364
36.137
35.94
35.811
35.727
35.647
35.6
35.598
35.6
35.581
35.572
35.564
35.572
35.621
35.685
35.705
35.722
35.831
36.167
36.798
37.61
38.369
38.861
38.981
38.795
38.448
38.055
37.669
37.317
36.999
36.774
36.647
36.56
36.496
36.501
36.636
36.866
37.13
37.384
37.545
37.582
37.501
37.344
37.127
36.897
36.715
36.582
36.476
36.386
36.278
36.179
36.137
36.152
36.175
36.162
36.147
36.161
36.177
36.151
36.099
36.08
36.113
36.255
36.669
37.442
38.396
39.215
39.69
39.753
39.454
38.979
38.513
38.124
37.846
37.704
37.685
37.691
37.645
37.599
37.604
37.639
37.669
37.702
37.748
37.801
37.887
37.966
37.924
37.722
37.449
37.225
37.101
37.011
36.934
36.855
36.766
36.687
36.619
36.581
36.533
36.465
36.384
36.316
36.29
36.299
36.323
36.322
36.286
36.264
36.367
36.77
37.541
38.534
39.423
39.892
39.879
39.528
39.073
38.671
38.367
38.158
38.017
37.92
37.832
37.745
37.648
37.547
37.484
37.447
37.453
37.517
37.584
37.61
37.59
37.494
37.338
37.165
37.013
36.887
36.771
36.65
36.537
36.439
36.358
36.322
36.313
36.285
36.236
36.167
36.093
36.017
35.951
35.911
35.916
35.921
35.909
35.844
35.737
35.656
35.747
36.21
37.101
38.155
39.01
39.429
39.39
39.023
38.524
38.064
37.741
37.559
37.474
37.467
37.487
37.47
37.395
37.297
37.222
37.198
37.233
37.3
37.352
37.352
37.297
37.182
37.051
36.908
36.742
36.593
36.502
36.45
36.373
36.275
36.184
36.087
36.014
35.989
35.951
35.87
35.779
35.737
35.747
35.745
35.695
35.61
35.527
35.454
35.372
35.311
35.277
35.255
35.26
35.385
35.8
36.591
37.618
38.546
39.067
39.098
38.754
38.254
37.788
37.422
37.189
37.083
37.059
37.052
37.03
36.969
36.889
36.816
36.774
36.793
36.856
36.92
36.952
36.94
36.858
36.697
36.522
36.393
36.298
36.206
36.097
35.992
35.907
35.832
35.788
35.777
35.76
35.737
35.698
35.657
35.643
35.623
35.567
35.519
35.497
35.477
35.443
35.399
35.329
35.237
35.117
35.01
34.967
34.979
35.087
35.421
36.102
37.061
38.046
38.727
38.929
38.716
38.283
37.771
37.309
36.982
36.82
36.786
36.803
36.748
36.565
36.362
36.253
36.228
36.207
36.178
36.197
36.257
36.292
36.264
36.167
36.051
35.936
35.817
35.713
35.618
35.556
35.517
35.477
35.455
35.457
35.461
35.458
35.424
35.386
35.366
35.35
35.315
35.282
35.265
35.255
35.233
35.202
35.178
35.171
35.156
35.133
35.129
35.147
35.15
35.145
35.16
35.317
35.808
36.69
37.741
38.579
38.948
38.827
38.374
37.848
37.391
37.018
36.739
36.585
36.534
36.541
36.538
36.476
36.379
36.379
36.493
36.673
36.847
36.924
36.899
36.806
36.671
36.511
36.366
36.231
36.099
35.975
35.888
35.848
35.829
35.783
35.71
35.669
35.693
35.754
35.778
35.746
35.696
35.668
35.659
35.645
35.616
35.583
35.57
35.557
35.509
35.436
35.377
35.328
35.269
35.204
35.148
35.134
35.262
35.675
36.464
37.49
38.425
38.969
39.015
38.674
38.148
37.62
37.224
36.968
36.784
36.667
36.638
36.612
36.568
36.496
36.431
36.448
36.561
36.737
36.873
36.884
36.812
36.762
36.719
36.608
36.41
36.172
35.947
35.766
35.655
35.618
35.62
35.612
35.573
35.531
35.506
35.5
35.492
35.47
35.454
35.41
35.359
35.371
35.41
35.432
35.395
35.296
35.191
35.148
35.174
35.22
35.237
35.186
35.104
35.095
35.28
35.828
36.733
37.771
38.588
38.974
38.93
38.604
38.127
37.634
37.243
37.0
36.87
36.754
36.632
36.533
36.452
36.44
36.502
36.601
36.727
36.844
36.904
36.895
36.828
36.734
36.657
36.585
36.477
36.297
36.067
35.869
35.756
35.698
35.67
35.662
35.624
35.563
35.52
35.519
35.549
35.572
35.562
35.531
35.515
35.518
35.525
35.515
35.472
35.395
35.344
35.358
35.382
35.355
35.268
35.171
35.115
35.168
35.423
36.014
36.967
38.053
38.895
39.263
39.172
38.778
38.272
37.794
37.397
37.096
36.903
36.803
36.766
36.75
36.725
36.689
36.681
36.72
36.811
36.935
37.047
37.102
37.075
36.975
36.816
36.653
36.513
36.38
36.234
36.084
35.981
35.946
35.934
35.902
35.854
35.799
35.755
35.721
35.733
35.76
35.765
35.764
35.751
35.724
35.697
35.674
35.62
35.561
35.508
35.451
35.404
35.372
35.349
35.316
35.298
35.373
35.752
36.589
37.717
38.755
39.352
39.427
39.124
38.617
38.1
37.684
37.376
37.15
37.032
36.986
36.928
36.826
36.748
36.718
36.739
36.844
37.026
37.191
37.282
37.3
37.258
37.141
36.961
36.764
36.594
36.455
36.335
36.216
36.121
36.066
36.029
35.982
35.935
35.905
35.877
35.868
35.87
35.863
35.829
35.758
35.699
35.673
35.682
35.713
35.723
35.709
35.647
35.528
35.397
35.323
35.352
35.443
35.613
36.025
36.853
38.08
39.453
40.605
41.184
41.126
40.617
39.93
39.289
38.812
38.49
38.235
38.001
37.734
37.438
37.185
37.058
37.073
37.131
37.175
37.201
37.205
37.182
37.087
36.939
36.768
36.57
36.369
36.202
36.075
35.972
35.896
35.822
35.773
35.73
35.67
35.614
35.557
35.541
35.57
35.605
35.606
35.563
35.478
35.399
35.404
35.478
35.505
35.462
35.381
35.31
35.285
35.288
35.269
35.264
35.377
35.796
36.635
37.728
38.73
39.308
39.362
39.053
38.607
38.18
37.805
37.487
37.26
37.132
37.059
37.016
36.988
36.957
36.942
36.99
37.09
37.205
37.354
37.473
37.495
37.408
37.248
37.062
36.882
36.728
36.621
36.544
36.442
36.317
36.225
36.191
36.203
36.211
36.162
36.085
36.034
36.006
35.974
35.934
35.923
35.966
36.005
35.985
35.913
35.838
35.775
35.737
35.711
35.664
35.597
35.524
35.531
35.786
36.417
37.389
38.486
39.36
39.735
39.595
39.138
38.6
38.153
37.837
37.653
37.532
37.425
37.312
37.201
37.116
37.092
37.102
37.154
37.28
37.458
37.624
37.694
37.648
37.504
37.313
37.132
36.966
36.813
36.686
36.593
36.544
36.501
36.416
36.313
36.211
36.145
36.121
36.146
36.191
36.214
36.183
36.11
36.032
35.965
35.925
35.912
35.904
35.877
35.832
35.797
35.796
35.785
35.722
35.615
35.554
35.705
36.256
37.195
38.271
39.153
39.608
39.597
39.25
38.749
38.243
37.827
37.526
37.34
37.242
37.141
37.054
36.997
36.98
37.044
37.185
37.35
37.483
37.535
37.486
37.366
37.233
37.09
36.923
36.747
36.602
36.5
36.424
36.368
36.322
36.237
36.106
35.998
35.977
35.996
36.011
36.024
36.014
35.953
35.847
35.768
35.747
35.73
35.706
35.704
35.695
35.643
35.553
35.5
35.512
35.511
35.429
35.336
35.361
35.713
36.521
37.659
38.752
39.452
39.63
39.365
38.861
38.3
37.838
37.53
37.341
37.215
37.133
37.057
36.973
36.903
36.898
36.98
37.117
37.26
37.376
37.445
37.451
37.351
37.177
36.988
36.813
36.653
36.491
36.359
36.265
36.191
36.13
36.077
36.015
35.965
35.943
35.943
35.945
35.945
35.928
35.896
35.85
35.802
35.783
35.766
35.699
35.603
35.508
35.444
35.403
35.372
35.338
35.32
35.301
35.274
35.333
35.669
36.409
37.451
38.482
39.177
39.405
39.244
38.853
38.383
37.938
37.559
37.299
37.136
37.005
36.895
36.821
36.806
36.844
36.908
36.982
37.079
37.194
37.291
37.311
37.243
37.115
36.961
36.811
36.667
36.515
36.36
36.216
36.104
36.025
35.957
35.904
35.871
35.841
35.836
35.843
35.834
35.79
35.73
35.68
35.659
35.631
35.582
35.549
35.523
35.492
35.445
35.406
35.392
35.393
35.377
35.318
35.215
35.155
35.36
36.032
37.112
38.283
39.144
39.513
39.406
39.005
38.508
38.024
37.592
37.261
37.058
36.942
36.835
36.714
36.617
36.604
36.691
36.861
37.056
37.228
37.344
37.366
37.279
37.101
36.907
36.684
36.448
36.253
36.136
36.037
35.927
35.842
35.776
35.718
35.665
35.64
35.65
35.683
35.709
35.694
35.668
35.632
35.58
35.539
35.484
35.404
35.332
35.297
35.273
35.254
35.262
35.298
35.285
35.206
35.145
35.284
35.811
36.753
37.907
38.885
39.413
39.472
39.162
38.658
38.135
37.705
37.398
37.202
37.063
36.967
36.915
36.847
36.766
36.755
36.852
37.031
37.228
37.395
37.486
37.475
37.395
37.237
37.016
36.794
36.607
36.448
36.278
36.094
35.955
35.916
35.91
35.877
35.863
35.876
35.861
35.804
35.73
35.688
35.671
35.667
35.656
35.631
35.603
35.571
35.516
35.454
35.396
35.353
35.342
35.341
35.305
35.248
35.328
35.814
36.778
37.969
38.989
39.559
39.644
39.374
38.957
38.51
38.104
37.782
37.553
37.403
37.314
37.218
37.11
37.058
37.096
37.213
37.383
37.546
37.652
37.654
37.583
37.503
37.409
37.249
37.036
36.845
36.704
36.607
36.511
36.387
36.258
36.171
36.154
36.171
36.169
36.168
36.165
36.134
36.094
36.07
36.036
35.989
35.968
35.959
35.921
35.839
35.741
35.665
35.623
35.604
35.576
35.537
35.576
35.863
36.559
37.644
38.789
39.581
39.839
39.654
39.222
38.735
38.307
37.993
37.791
37.645
37.524
37.434
37.4
37.405
37.422
37.478
37.572
37.684
37.805
37.899
37.911
37.809
37.622
37.382
37.147
36.96
36.823
36.705
36.591
36.507
36.453
36.418
36.369
36.297
36.205
36.126
36.107
36.136
36.189
36.22
36.182
36.079
35.971
35.905
35.862
35.819
35.771
35.733
35.681
35.606
35.54
35.479
35.451
35.615
36.182
37.181
38.355
39.289
39.748
39.742
39.428
38.962
38.483
38.074
37.774
37.591
37.509
37.503
37.479
37.408
37.344
37.368
37.483
37.617
37.722
37.762
37.764
37.749
37.659
37.462
37.206
36.988
36.846
36.75
36.649
36.507
36.371
36.289
36.258
36.233
36.202
36.191
36.193
36.18
36.149
36.083
35.988
35.905
35.857
35.846
35.842
35.813
35.754
35.668
35.572
35.48
35.41
35.353
35.303
35.316
35.51
36.005
36.862
37.977
39.011
39.639
39.757
39.481
39.029
38.564
38.151
37.829
37.643
37.592
37.613
37.605
37.538
37.45
37.408
37.451
37.555
37.68
37.763
37.762
37.678
37.56
37.453
37.324
37.138
36.926
36.758
36.668
36.581
36.483
36.39
36.316
36.275
36.272
36.255
36.212
36.169
36.153
36.128
36.051
35.939
35.848
35.783
35.725
35.701
35.708
35.69
35.64
35.566
35.495
35.427
35.362
35.288
35.251
35.324
35.68
36.47
37.602
38.729
39.508
39.802
39.649
39.197
38.655
38.193
37.86
37.675
37.623
37.626
37.598
37.521
37.443
37.408
37.453
37.55
37.657
37.76
37.84
37.822
37.69
37.47
37.199
36.96
36.822
36.774
36.759
36.71
36.609
36.488
36.376
36.244
36.119
36.063
36.076
36.092
36.079
36.037
35.979
35.945
35.924
35.874
35.77
35.656
35.599
35.577
35.535
35.463
35.393
35.369
35.345
35.309
35.269
35.228
35.251
35.557
36.347
37.501
38.621
39.336
39.553
39.361
38.965
38.534
38.117
37.762
37.525
37.416
37.375
37.338
37.294
37.264
37.271
37.319
37.393
37.46
37.521
37.552
37.508
37.403
37.279
37.125
36.929
36.743
36.583
36.452
36.315
36.171
36.077
36.064
36.097
36.071
35.95
35.833
35.796
35.801
35.792
35.744
35.703
35.672
35.619
35.578
35.521
35.432
35.352
35.305
35.272
35.243
35.191
35.097
35.004
34.958
34.95
34.971
35.111
35.563
36.44
37.587
38.616
39.202
39.287
38.989
38.473
37.918
37.485
37.184
36.987
36.918
36.912
36.871
36.802
36.75
36.732
36.769
36.869
37.017
37.147
37.155
37.03
36.862
36.708
36.558
36.391
36.214
36.057
35.925
35.814
35.746
35.713
35.69
35.668
35.639
35.601
35.56
35.54
35.525
35.509
35.498
35.451
35.35
35.222
35.131
35.097
35.092
35.077
35.029
34.962
34.909
34.868
34.809
34.728
34.666
34.632
34.745
35.222
36.14
37.282
38.271
38.835
38.892
38.569
38.062
37.55
37.115
36.784
36.56
36.436
36.391
36.406
36.42
36.437
36.457
36.484
36.565
36.705
36.846
36.912
36.872
36.761
36.608
36.415
36.193
35.981
35.827
35.729
35.671
35.645
35.639
35.598
35.52
35.452
35.421
35.44
35.471
35.462
35.415
35.36
35.341
35.332
35.283
35.216
35.187
35.182
35.155
35.097
35.058
35.042
35.021
34.956
34.891
34.874
34.951
35.199
35.77
36.726
37.837
38.708
39.096
38.984
38.535
37.996
37.477
37.015
36.679
36.534
36.54
36.567
36.52
36.463
36.484
36.566
36.668
36.774
36.868
36.965
37.033
36.996
36.848
36.656
36.458
36.307
36.217
36.141
36.068
35.989
35.91
35.867
35.851
35.832
35.813
35.793
35.772
35.736
35.687
35.632
35.582
35.547
35.511
35.459
35.388
35.306
35.234
35.196
35.169
35.15
35.123
35.081
35.02
34.986
35.087
35.493
36.313
37.426
38.479
39.145
39.303
39.029
38.54
38.006
37.546
37.235
37.053
36.967
36.922
36.91
36.92
36.924
36.953
37.057
37.185
37.269
37.297
37.302
37.266
37.18
37.048
36.865
36.656
36.462
36.297
36.156
36.052
35.989
35.972
35.964
35.955
35.932
35.904
35.896
35.896
35.9
35.891
35.851
35.789
35.716
35.639
35.583
35.558
35.536
35.488
35.426
35.358
35.275
35.184
35.122
35.102
35.086
35.157
35.495
36.263
37.359
38.415
39.127
39.411
39.301
38.873
38.308
37.807
37.498
37.342
37.292
37.284
37.267
37.194
37.059
36.963
37.018
37.175
37.353
37.467
37.476
37.41
37.267
37.077
36.884
36.714
36.568
36.446
36.352
36.271
36.198
36.113
36.038
36.007
36.0
36.024
36.043
35.997
35.915
35.844
35.798
35.774
35.744
35.707
35.666
35.606
35.529
35.459
35.434
35.448
35.43
35.358
35.255
35.186
35.179
35.202
35.258
35.505
36.135
37.144
38.255
39.134
39.526
39.417
39.004
38.483
37.994
37.635
37.429
37.37
37.378
37.347
37.241
37.128
37.084
37.141
37.272
37.403
37.491
37.532
37.498
37.381
37.218
37.07
36.925
36.756
36.574
36.407
36.313
36.289
36.296
36.302
36.277
36.211
36.138
36.089
36.064
36.029
35.981
35.923
35.889
35.866
35.823
35.729
35.615
35.526
35.478
35.476
35.471
35.458
35.428
35.376
35.291
35.217
35.217
35.429
36.069
37.103
38.233
39.109
39.465
39.305
38.868
38.373
37.942
37.618
37.398
37.262
37.213
37.198
37.156
37.088
37.06
37.113
37.26
37.421
37.516
37.529
37.461
37.328
37.172
37.01
36.838
36.666
36.492
36.339
36.237
36.172
36.126
36.1
36.059
36.002
35.92
35.842
35.821
35.839
35.852
35.829
35.74
35.633
35.533
35.451
35.404
35.381
35.366
35.314
35.218
35.115
35.058
35.054
35.054
35.013
35.005
35.217
35.832
36.821
37.887
38.675
38.988
38.853
38.444
37.955
37.531
37.228
37.03
36.918
36.883
36.904
36.924
36.922
36.949
37.022
37.135
37.267
37.349
37.344
37.268
37.161
37.053
36.921
36.757
36.589
36.447
36.339
36.25
36.181
36.137
36.106
36.116
36.141
36.142
36.121
36.081
36.041
35.996
35.977
35.996
36.006
35.945
35.827
35.692
35.59
35.532
35.483
35.404
35.337
35.298
35.247
35.187
35.167
35.278
35.66
36.403
37.406
38.367
38.976
39.106
38.881
38.503
38.073
37.705
37.467
37.336
37.281
37.271
37.263
37.252
37.245
37.254
37.318
37.438
37.573
37.648
37.614
37.509
37.412
37.328
37.203
37.021
36.816
36.648
36.522
36.432
36.369
36.322
36.27
36.222
36.178
36.14
36.129
36.114
36.088
36.055
36.01
35.965
35.907
35.833
35.764
35.702
35.646
35.577
35.497
35.416
35.356
35.318
35.269
35.198
35.183
35.348
35.857
36.722
37.721
38.544
38.941
38.878
38.476
37.95
37.512
37.249
37.14
37.114
37.096
37.016
36.887
36.79
36.805
36.901
37.007
37.097
37.144
37.133
37.059
36.949
36.826
36.689
36.548
36.402
36.281
36.2
36.157
36.123
36.06
35.99
35.943
35.949
35.961
35.931
35.869
35.807
35.775
35.792
35.794
35.76
35.701
35.636
35.585
35.531
35.443
35.334
35.244
35.23
35.252
35.249
35.222
35.224
35.366
35.771
36.517
37.488
38.361
38.85
38.856
38.5
38.008
37.557
37.224
37.029
36.949
36.92
36.929
36.935
36.899
36.863
36.894
36.971
37.03
37.061
37.038
36.993
36.926
36.843
36.709
36.517
36.313
36.164
36.107
36.083
36.025
35.943
35.885
35.841
35.787
35.762
35.782
35.815
35.827
35.797
35.737
35.681
35.618
35.553
35.499
35.46
35.446
35.434
35.407
35.353
35.285
35.205
35.146
35.097
35.047
35.01
35.062
35.334
35.963
36.903
37.885
38.597
38.844
38.663
38.251
37.815
37.438
37.148
36.969
36.914
36.966
37.02
36.985
36.888
36.828
36.839
36.901
36.974
37.023
37.032
36.987
36.889
36.781
36.679
36.532
36.345
36.142
35.991
35.925
35.929
35.908
35.835
35.777
35.776
35.771
35.754
35.745
35.741
35.726
35.672
35.574
35.476
35.435
35.429
35.419
35.385
35.321
35.267
35.256
35.241
35.199
35.127
35.053
35.002
35.009
35.123
35.49
36.22
37.188
38.091
38.648
38.743
38.482
38.012
37.518
37.158
36.976
36.935
36.96
36.978
36.962
36.917
36.859
36.785
36.738
36.757
36.827
36.899
36.925
36.868
36.746
36.603
36.461
36.309
36.144
35.991
35.88
35.815
35.786
35.757
35.724
35.691
35.665
35.635
35.571
35.506
35.468
35.465
35.473
35.449
35.407
35.366
35.288
35.186
35.111
35.073
35.051
35.032
35.005
34.944
34.859
34.797
34.76
34.75
34.817
35.096
35.704
36.626
37.609
38.304
38.536
38.33
37.855
37.344
36.942
36.689
36.55
36.492
36.514
36.553
36.553
36.488
36.411
36.387
36.413
36.481
36.56
36.585
36.567
36.511
36.398
36.228
36.042
35.865
35.766
35.731
35.688
35.632
35.576
35.518
35.475
35.465
35.501
35.546
35.557
35.512
35.462
35.46
35.473
35.463
35.429
35.372
35.278
35.148
35.022
34.964
34.939
34.94
34.945
34.901
34.817
34.745
34.739
34.785
34.883
35.106
35.593
36.4
37.343
38.071
38.358
38.216
37.802
37.3
36.865
36.548
36.384
36.378
36.443
36.473
36.422
36.35
36.338
36.392
36.502
36.625
36.731
36.784
36.753
36.637
36.464
36.286
36.111
35.935
35.781
35.659
35.574
35.504
35.454
35.402
35.366
35.371
35.38
35.382
35.388
35.395
35.4
35.371
35.345
35.335
35.296
35.208
35.115
35.067
35.048
35.023
34.984
34.937
34.891
34.871
34.87
34.847
34.809
34.76
34.75
34.937
35.489
36.397
37.393
38.155
38.521
38.482
38.134
37.639
37.178
36.841
36.633
36.543
36.511
36.46
36.4
36.353
36.363
36.463
36.611
36.751
36.842
36.874
36.874
36.799
36.66
36.506
36.351
36.166
35.977
35.865
35.82
35.792
35.774
35.753
35.721
35.673
35.609
35.606
35.637
35.677
35.71
35.701
35.654
35.585
35.499
35.41
35.347
35.304
35.243
35.177
35.153
35.173
35.186
35.175
35.143
35.077
34.976
34.9
34.91
35.112
35.627
36.46
37.439
38.263
38.698
38.678
38.343
37.871
37.403
37.012
36.722
36.525
36.453
36.513
36.586
36.611
36.603
36.599
36.649
36.743
36.846
36.909
36.904
36.818
36.67
36.5
36.315
36.142
36.008
35.92
35.852
35.785
35.718
35.671
35.643
35.651
35.659
35.637
35.608
35.624
35.666
35.674
35.643
35.567
35.485
35.406
35.327
35.262
35.206
35.165
35.155
35.176
35.194
35.186
35.166
35.115
35.031
34.974
35.086
35.555
36.42
37.459
38.341
38.812
38.818
38.473
37.962
37.457
37.071
36.81
36.651
36.579
36.572
36.573
36.543
36.518
36.546
36.63
36.739
36.834
36.899
36.901
36.835
36.743
36.646
36.528
36.378
36.197
36.028
35.909
35.81
35.728
35.675
35.636
35.625
35.619
35.626
35.638
35.631
35.614
35.634
35.67
35.679
35.62
35.548
35.519
35.482
35.417
35.334
35.278
35.24
35.214
35.189
35.167
35.132
35.062
35.016
35.184
35.715
36.602
37.647
38.52
38.949
38.91
38.524
37.965
37.419
37.014
36.774
36.686
36.705
36.765
36.781
36.756
36.722
36.698
36.702
36.75
36.849
36.969
37.026
36.966
36.819
36.626
36.46
36.348
36.257
36.185
36.121
36.051
35.977
35.919
35.881
35.854
35.823
35.81
35.834
35.875
35.89
35.88
35.851
35.789
35.699
35.65
35.655
35.662
35.667
35.679
35.665
35.581
35.442
35.278
35.108
35.016
35.084
35.4
36.059
36.979
37.925
38.641
38.925
38.76
38.314
37.795
37.358
37.083
36.995
37.042
37.1
37.083
37.014
36.98
36.984
37.031
37.144
37.306
37.45
37.478
37.382
37.237
37.085
36.934
36.807
36.687
36.573
36.471
36.354
36.199
36.039
35.894
35.798
35.793
35.839
35.891
35.938
35.99
36.04
36.051
36.024
35.976
35.911
35.827
35.763
35.76
35.815
35.866
35.838
35.739
35.651
35.626
35.686
35.887
36.363
37.153
38.088
38.893
39.35
39.384
39.075
38.597
38.133
37.803
37.611
37.528
37.51
37.499
37.462
37.409
37.365
37.382
37.476
37.588
37.676
37.748
37.776
37.721
37.598
37.46
37.349
37.246
37.12
36.982
36.902
36.863
36.796
36.72
36.686
36.709
36.75
36.754
36.704
36.652
36.604
36.543
36.457
36.362
36.283
36.237
36.196
36.164
36.17
36.211
36.224
36.177
36.063
35.925
35.877
36.096
36.701
37.614
38.586
39.301
39.565
39.398
38.974
38.493
38.11
37.889
37.823
37.816
37.781
37.715
37.647
37.619
37.639
37.679
37.726
37.78
37.806
37.787
37.747
37.696
37.595
37.422
37.231
37.097
37.008
36.906
36.786
36.689
36.641
36.644
36.658
36.655
36.63
36.594
36.548
36.493
36.437
36.397
36.368
36.333
36.283
36.207
36.141
36.095
36.05
35.98
35.879
35.809
35.763
35.721
35.779
36.099
36.761
37.636
38.456
39.021
39.221
39.055
38.648
38.172
37.78
37.559
37.523
37.556
37.554
37.5
37.441
37.401
37.387
37.386
37.416
37.469
37.507
37.491
37.421
37.322
37.227
37.123
37.001
36.897
36.821
36.738
36.644
36.555
36.498
36.463
36.442
36.431
36.4
36.36
36.305
36.23
36.174
36.172
36.211
36.253
36.241
36.147
36.006
35.888
35.845
35.852
35.85
35.801
35.723
35.637
35.645
35.918
36.556
37.44
38.296
38.866
39.009
38.767
38.3
37.829
37.52
37.381
37.366
37.432
37.466
37.42
37.307
37.194
37.165
37.216
37.295
37.361
37.384
37.368
37.287
37.162
37.047
36.982
36.935
36.85
36.7
36.488
36.293
36.213
36.226
36.218
36.144
36.077
36.091
36.138
36.15
36.094
36.013
35.955
35.911
35.885
35.872
35.857
35.831
35.78
35.699
35.646
35.612
35.566
35.523
35.488
35.506
35.702
36.215
37.033
37.936
38.597
38.837
38.703
38.343
37.947
37.626
37.444
37.396
37.42
37.446
37.441
37.385
37.311
37.295
37.339
37.36
37.315
37.245
37.192
37.164
37.143
37.107
37.03
36.901
36.735
36.58
36.444
36.361
36.362
36.355
36.289
36.217
36.154
36.119
36.128
36.156
36.145
36.074
35.98
35.906
35.835
35.755
35.692
35.666
35.665
35.68
35.68
35.619
35.527
35.435
35.368
35.346
35.422
35.661
36.164
36.957
37.823
38.483
38.765
38.615
38.151
37.634
37.275
37.115
37.092
37.115
37.113
37.083
37.053
37.012
36.946
36.909
36.931
36.969
36.975
36.957
36.922
36.858
36.739
36.59
36.462
36.376
36.326
36.28
36.2
36.111
36.039
35.991
35.961
35.931
35.891
35.889
35.902
35.877
35.815
35.762
35.719
35.663
35.618
35.539
35.449
35.42
35.411
35.365
35.294
35.23
35.148
35.047
35.005
35.068
35.322
35.894
36.709
37.504
38.077
38.284
38.116
37.728
37.287
36.919
36.7
36.654
36.727
36.783
36.735
36.628
36.528
36.477
36.493
36.558
36.614
36.621
36.587
36.541
36.484
36.388
36.254
36.111
35.99
35.92
35.858
35.768
35.673
35.604
35.562
35.549
35.545
35.525
35.511
35.53
35.552
35.538
35.506
35.46
35.387
35.292
35.203
35.177
35.199
35.191
35.144
35.093
35.011
34.89
34.798
34.804
34.948
35.317
35.958
36.734
37.414
37.8
37.815
37.517
37.075
36.67
36.408
36.304
36.306
36.342
36.341
36.3
36.271
36.28
36.303
36.321
36.352
36.393
36.408
36.4
36.361
36.294
36.198
36.06
35.931
35.811
35.675
35.551
35.492
35.491
35.501
35.484
35.446
35.434
35.482
35.55
35.586
35.545
35.416
35.28
35.235
35.271
35.316
35.301
35.238
35.177
35.118
35.05
34.995
34.956
34.926
34.889
34.878
34.977
35.309
35.92
36.707
37.419
37.813
37.825
37.552
37.153
36.77
36.475
36.29
36.208
36.191
36.184
36.152
36.117
36.139
36.226
36.321
36.351
36.328
36.301
36.285
36.271
36.208
36.097
35.948
35.808
35.723
35.661
35.565
35.477
35.446
35.472
35.538
35.575
35.541
35.467
35.403
35.363
35.36
35.371
35.359
35.323
35.278
35.227
35.184
35.142
35.106
35.076
35.055
35.052
35.048
35.017
34.959
34.948
35.132
35.633
36.393
37.187
37.73
37.853
37.601
37.182
36.781
36.467
36.255
36.161
36.135
36.109
36.067
36.041
36.063
36.128
36.223
36.326
36.416
36.46
36.438
36.355
36.235
36.109
36.014
35.939
35.856
35.757
35.665
35.595
35.55
35.561
35.6
35.594
35.566
35.547
35.549
35.558
35.597
35.643
35.661
35.644
35.58
35.492
35.44
35.439
35.456
35.423
35.348
35.268
35.217
35.2
35.18
35.187
35.303
35.646
36.322
37.179
37.924
38.297
38.237
37.888
37.424
37.002
36.689
36.497
36.424
36.438
36.484
36.514
36.473
36.39
36.332
36.348
36.437
36.545
36.634
36.667
36.608
36.494
36.371
36.254
36.116
35.969
35.821
35.723
35.69
35.685
35.694
35.682
35.674
35.706
35.767
35.81
35.798
35.736
35.669
35.622
35.577
35.529
35.525
35.532
35.523
35.504
35.479
35.468
35.47
35.477
35.527
35.726
36.202
36.931
37.676
38.176
38.326
38.155
37.771
37.334
36.986
36.764
36.653
36.641
36.672
36.697
36.676
36.646
36.675
36.803
36.966
37.072
37.075
37.019
36.935
36.835
36.703
36.535
36.38
36.28
36.235
36.206
36.135
36.042
35.974
35.961
35.99
36.027
36.023
35.961
35.853
35.753
35.719
35.766
35.825
35.843
35.798
35.707
35.617
35.552
35.52
35.503
35.479
35.455
35.527
35.827
36.463
37.315
38.095
38.56
38.592
38.278
37.811
37.405
37.143
37.029
37.019
37.078
37.153
37.176
37.125
37.077
37.065
37.075
37.115
37.184
37.219
37.178
37.082
36.984
36.895
36.792
36.676
36.572
36.524
36.505
36.474
36.395
36.321
36.295
36.274
36.255
36.26
36.299
36.31
36.236
36.15
36.074
35.994
35.94
35.932
35.936
35.901
35.853
35.81
35.783
35.786
35.772
35.726
35.743
35.959
36.481
37.238
38.001
38.541
38.711
38.538
38.178
37.797
37.518
37.383
37.366
37.429
37.52
37.557
37.489
37.367
37.263
37.211
37.205
37.229
37.253
37.277
37.292
37.278
37.188
37.029
36.865
36.743
36.667
36.599
36.527
36.435
36.351
36.293
36.241
36.196
36.176
36.17
36.169
36.169
36.169
36.141
36.084
36.031
35.999
35.967
35.91
35.854
35.796
35.742
35.728
35.718
35.674
35.619
35.639
35.847
36.355
37.128
37.943
38.499
38.639
38.446
38.118
37.818
37.581
37.425
37.37
37.375
37.441
37.514
37.511
37.404
37.25
37.146
37.165
37.252
37.332
37.352
37.291
37.167
37.013
36.89
36.809
36.714
36.601
36.501
36.467
36.476
36.481
36.448
36.407
36.375
36.331
36.298
36.303
36.29
36.239
36.185
36.146
36.078
35.978
35.9
35.88
35.883
35.836
35.746
35.65
35.537
35.454
35.413
35.411
35.44
35.54
35.872
36.536
37.419
38.205
38.662
38.708
38.433
38.023
37.645
37.444
37.443
37.563
37.704
37.773
37.744
37.649
37.555
37.514
37.521
37.524
37.507
37.464
37.396
37.334
37.268
37.153
37.024
36.913
36.827
36.733
36.615
36.475
36.389
36.37
36.365
36.335
36.251
36.165
36.119
36.116
36.143
36.115
36.011
35.917
35.858
35.853
35.861
35.859
35.845
35.799
35.712
35.618
35.586
35.616
35.652
35.664
35.707
35.918
36.415
37.108
37.749
38.096
38.135
37.962
37.649
37.32
37.071
36.954
36.937
36.944
36.925
36.839
36.742
36.722
36.797
36.898
36.977
37.015
36.991
36.906
36.795
36.684
36.573
36.472
36.37
36.278
36.202
36.14
36.114
36.102
36.075
36.04
36.006
35.981
35.954
35.912
35.876
35.854
35.829
35.802
35.774
35.73
35.699
35.658
35.573
35.474
35.412
35.389
35.367
35.345
35.339
35.311
35.286
35.372
35.688
36.277
37.048
37.763
38.196
38.262
38.053
37.715
37.368
37.08
36.908
36.877
36.952
37.056
37.079
37.01
36.931
36.892
36.841
36.768
36.716
36.712
36.725
36.699
36.616
36.478
36.321
36.176
36.08
36.028
35.984
35.922
35.848
35.821
35.826
35.87
35.925
35.931
35.884
35.813
35.744
35.687
35.655
35.625
35.602
35.586
35.56
35.523
35.467
35.41
35.377
35.347
35.302
35.233
35.156
35.104
35.087
35.1
35.186
35.425
35.961
36.765
37.579
38.079
38.149
37.883
37.469
37.083
36.793
36.613
36.538
36.521
36.491
36.408
36.332
36.288
36.29
36.339
36.416
36.492
36.526
36.511
36.456
36.399
36.334
36.207
36.044
35.912
35.831
35.777
35.705
35.65
35.638
35.654
35.631
35.547
35.456
35.405
35.401
35.444
35.51
35.535
35.503
35.435
35.339
35.265
35.258
35.273
35.261
35.204
35.145
35.12
35.131
35.175
35.21
35.247
35.408
35.817
36.487
37.246
37.813
38.043
37.943
37.62
37.206
36.804
36.529
36.433
36.454
36.514
36.535
36.514
36.484
36.45
36.419
36.426
36.499
36.584
36.634
36.627
36.553
36.425
36.303
36.205
36.118
36.023
35.921
35.825
35.752
35.713
35.691
35.674
35.661
35.646
35.636
35.614
35.581
35.57
35.569
35.596
35.625
35.609
35.569
35.514
35.427
35.33
35.254
35.229
35.237
35.245
35.248
35.226
35.186
35.117
35.066
35.176
35.58
36.283
37.118
37.784
38.061
37.92
37.527
37.054
36.621
36.31
36.136
36.044
36.032
36.058
36.062
36.009
35.953
35.962
36.017
36.105
36.218
36.287
36.288
36.251
36.202
36.116
35.968
35.79
35.68
35.649
35.631
35.595
35.506
35.407
35.333
35.322
35.341
35.356
35.348
35.326
35.326
35.332
35.325
35.341
35.351
35.303
35.195
35.095
35.058
35.057
35.033
34.978
34.921
34.875
34.846
34.854
34.947
35.214
35.726
36.458
37.201
37.703
37.852
37.704
37.385
37.006
36.674
36.454
36.343
36.325
36.333
36.283
36.199
36.146
36.135
36.161
36.247
36.368
36.453
36.466
36.431
36.35
36.245
36.117
35.993
35.906
35.838
35.753
35.645
35.556
35.5
35.466
35.473
35.519
35.561
35.554
35.527
35.509
35.497
35.49
35.493
35.47
35.418
35.356
35.298
35.258
35.232
35.209
35.189
35.166
35.149
35.143
35.137
35.218
35.511
36.102
36.926
37.778
38.39
38.608
38.452
38.079
37.699
37.42
37.238
37.107
37.053
37.067
37.108
37.107
37.062
37.021
37.036
37.096
37.153
37.183
37.2
37.217
37.196
37.133
37.054
36.956
36.81
36.66
36.555
36.502
36.476
36.43
36.339
36.277
36.264
36.252
36.231
36.194
36.118
36.062
36.05
36.033
35.984
35.924
35.899
35.914
35.911
35.87
35.794
35.751
35.739
35.743
35.827
36.1
36.655
37.409
38.1
38.531
38.659
38.5
38.161
37.786
37.486
37.303
37.219
37.214
37.228
37.194
37.111
37.045
37.025
37.045
37.111
37.23
37.319
37.328
37.253
37.141
37.021
36.925
36.829
36.694
36.542
36.398
36.281
36.235
36.246
36.254
36.223
36.2
36.185
36.16
36.142
36.15
36.168
36.175
36.151
36.094
36.042
35.993
35.97
36.097
36.487
37.088
37.702
38.161
38.32
38.177
37.854
37.529
37.295
37.128
36.976
36.825
36.679
36.533
36.435
36.441
36.576
36.828
37.093
37.281
37.329
37.262
37.115
36.957
36.787
36.591
36.418
36.307
36.229
36.164
36.113
36.066
36.021
36.014
36.038
36.052
36.045
36.037
36.049
36.071
36.101
36.13
36.225
36.552
37.127
37.76
38.177
38.246
38.062
37.74
37.399
37.108
36.938
36.867
36.809
36.691
36.528
36.427
36.48
36.658
36.863
37.051
37.206
37.292
37.27
37.136
36.956
36.772
36.599
36.434
36.289
36.177
36.113
36.074
36.057
36.056
36.073
36.092
36.088
36.059
36.019
35.953
35.926
36.006
36.238
36.67
37.293
37.941
38.419
38.58
38.451
38.118
37.72
37.403
37.264
37.262
37.294
37.303
37.245
37.105
36.962
36.884
36.884
36.971
37.104
37.205
37.226
37.127
36.949
36.751
36.574
36.449
36.382
36.339
36.289
36.203
36.117
36.036
35.957
35.923
35.928
35.929
35.92
35.884
35.85
35.814
35.785
35.859
36.149
36.683
37.371
38.018
38.408
38.427
38.161
37.829
37.559
37.423
37.414
37.454
37.489
37.442
37.276
37.085
36.948
36.859
36.828
36.865
36.935
36.955
36.878
36.761
36.667
36.59
36.478
36.336
36.193
36.082
35.979
35.888
35.828
35.783
35.764
35.749
35.712
35.677
35.671
35.672
35.672
35.63
35.536
35.438
35.348
35.294
35.256
35.266
35.423
35.84
36.55
37.376
38.016
38.311
38.282
38.046
37.723
37.416
37.242
37.25
37.388
37.535
37.549
37.41
37.193
37.0
36.888
36.868
36.889
36.896
36.883
36.853
36.828
36.788
36.686
36.559
36.427
36.283
36.184
36.128
36.059
35.972
35.891
35.841
35.799
35.77
35.762
35.755
35.752
35.751
35.741
35.729
35.698
35.651
35.58
35.514
35.453
35.383
35.337
35.311
35.28
35.221
35.15
35.099
35.121
35.293
35.713
36.399
37.254
38.049
38.513
38.577
38.342
37.993
37.698
37.525
37.482
37.512
37.555
37.554
37.482
37.328
37.149
37.028
36.992
37.026
37.09
37.106
37.044
36.956
36.901
36.864
36.779
36.659
36.543
36.434
36.34
36.248
36.184
36.166
36.153
36.119
36.067
36.034
36.019
35.996
35.957
35.936
35.939
35.928
35.881
35.825
35.788
35.764
35.716
35.675
35.644
35.592
35.525
35.459
35.416
35.413
35.434
35.456
35.453
35.504
35.778
36.368
37.174
37.928
38.403
38.503
38.29
37.94
37.613
37.395
37.284
37.243
37.22
37.172
37.081
36.994
36.937
36.901
36.878
36.911
37.008
37.083
37.079
36.988
36.844
36.694
36.569
36.466
36.38
36.298
36.233
36.181
36.11
36.041
35.993
35.965
35.963
35.999
36.024
36.017
36.01
35.995
35.939
35.863
35.799
35.722
35.659
35.656
35.675
35.659
35.559
35.397
35.285
35.282
35.413
35.747
36.302
37.014
37.726
38.205
38.297
38.049
37.678
37.325
37.024
36.81
36.681
36.595
36.537
36.499
36.458
36.452
36.526
36.656
36.784
36.872
36.895
36.833
36.713
36.56
36.393
36.242
36.123
36.02
35.935
35.878
35.834
35.776
35.736
35.714
35.672
35.621
35.602
35.646
35.712
35.737
35.693
35.615
35.546
35.492
35.446
35.412
35.393
35.338
35.231
35.132
35.149
35.397
35.956
36.754
37.562
38.152
38.387
38.262
37.925
37.528
37.182
36.975
36.884
36.84
36.805
36.758
36.68
36.572
36.486
36.458
36.513
36.593
36.64
36.659
36.625
36.5
36.347
36.222
36.134
36.037
35.935
35.845
35.749
35.639
35.55
35.492
35.474
35.468
35.45
35.433
35.414
35.391
35.375
35.375
35.359
35.307
35.24
35.187
35.12
35.082
35.075
35.064
35.025
34.945
34.85
34.753
34.705
34.766
34.931
35.281
35.957
36.906
37.81
38.378
38.484
38.24
37.845
37.48
37.197
37.012
36.96
36.972
36.973
36.934
36.835
36.696
36.591
36.554
36.572
36.642
36.718
36.748
36.722
36.661
36.559
36.402
36.236
36.09
35.97
35.873
35.778
35.676
35.563
35.445
35.375
35.367
35.403
35.428
35.434
35.424
35.409
35.393
35.379
35.354
35.311
35.278
35.257
35.21
35.127
35.037
34.96
34.929
34.889
34.812
34.748
34.728
34.744
34.765
34.776
34.834
35.098
35.746
36.743
37.802
38.576
38.863
38.67
38.205
37.726
37.356
37.107
36.949
36.855
36.811
36.773
36.695
36.604
36.54
36.538
36.605
36.697
36.781
36.824
36.802
36.743
36.658
36.533
36.395
36.264
36.145
36.028
35.911
35.79
35.686
35.611
35.575
35.574
35.602
35.647
35.689
35.68
35.601
35.513
35.481
35.502
35.54
35.551
35.531
35.458
35.34
35.227
35.159
35.131
35.123
35.133
35.148
35.147
35.143
35.151
35.127
35.104
35.252
35.77
36.64
37.608
38.414
38.855
38.86
38.544
38.076
37.628
37.284
37.03
36.842
36.721
36.644
36.569
36.495
36.44
36.472
36.587
36.741
36.887
36.976
37.016
37.017
36.988
36.879
36.651
36.393
36.205
36.113
36.066
36.007
35.918
35.796
35.706
35.7
35.752
35.791
35.774
35.739
35.747
35.779
35.777
35.711
35.654
35.629
35.615
35.584
35.557
35.531
35.489
35.442
35.406
35.388
35.444
35.71
36.255
37.028
37.851
38.461
38.712
38.604
38.238
37.78
37.364
37.079
36.871
36.656
36.442
36.262
36.132
36.107
36.206
36.418
36.677
36.903
37.042
37.085
37.036
36.93
36.784
36.611
36.443
36.276
36.102
35.944
35.819
35.728
35.671
35.636
35.631
35.651
35.703
35.753
35.763
35.729
35.715
35.743
35.795
35.801
35.756
35.688
35.622
35.576
35.546
35.492
35.409
35.395
35.636
36.251
37.135
38.013
38.61
38.818
38.677
38.336
37.939
37.571
37.24
36.968
36.766
36.611
36.479
36.346
36.248
36.249
36.371
36.56
36.787
36.994
37.083
37.005
36.84
36.687
36.565
36.442
36.302
36.115
35.918
35.762
35.687
35.665
35.618
35.514
35.431
35.438
35.52
35.614
35.654
35.614
35.524
35.452
35.44
35.464
35.485
35.499
35.51
35.468
35.369
35.341
35.616
36.314
37.327
38.34
39.042
39.274
39.145
38.813
38.413
38.07
37.81
37.644
37.533
37.433
37.341
37.269
37.208
37.14
37.099
37.114
37.186
37.303
37.407
37.418
37.32
37.173
37.014
36.854
36.693
36.532
36.4
36.278
36.164
36.074
35.993
35.919
35.867
35.833
35.823
35.837
35.864
35.888
35.866
35.807
35.732
35.656
35.612
35.591
35.549
35.476
35.392
35.346
35.465
35.917
36.738
37.737
38.613
39.169
39.345
39.209
38.899
38.535
38.21
37.997
37.908
37.864
37.798
37.684
37.567
37.46
37.377
37.332
37.348
37.407
37.491
37.602
37.674
37.648
37.508
37.295
37.111
36.966
36.83
36.686
36.55
36.47
36.414
36.353
36.297
36.222
36.102
36.01
36.0
36.052
36.105
36.102
36.054
35.982
35.929
35.891
35.847
35.784
35.713
35.629
35.552
35.475
35.398
35.403
35.626
36.199
37.144
38.233
39.12
39.571
39.554
39.23
38.807
38.423
38.181
38.082
38.046
38.001
37.912
37.786
37.667
37.593
37.598
37.685
37.794
37.831
37.794
37.749
37.699
37.615
37.49
37.326
37.142
36.979
36.855
36.764
36.686
36.629
36.575
36.502
36.404
36.324
36.299
36.302
36.322
36.331
36.278
36.178
36.084
36.041
36.027
36.014
35.962
35.861
35.747
35.676
35.624
35.56
35.495
35.447
35.467
35.66
36.16
36.99
37.986
38.876
39.426
39.541
39.301
38.886
38.464
38.139
37.94
37.858
37.798
37.677
37.515
37.379
37.329
37.369
37.484
37.622
37.768
37.906
37.934
37.823
37.627
37.409
37.198
37.05
36.959
36.877
36.796
36.701
36.593
36.501
36.433
36.368
36.314
36.278
36.253
36.228
36.194
36.135
36.065
36.003
35.962
35.944
35.938
35.902
35.836
35.782
35.745
35.745
35.905
36.387
37.189
38.102
38.838
39.21
39.177
38.854
38.452
38.093
37.789
37.547
37.385
37.298
37.246
37.178
37.1
37.058
37.124
37.324
37.576
37.774
37.855
37.776
37.586
37.385
37.237
37.127
37.006
36.84
36.673
36.565
36.496
36.445
36.387
36.326
36.295
36.29
36.291
36.286
36.288
36.306
36.326
36.31
36.252
36.187
36.15
36.22
36.527
37.14
37.965
38.759
39.298
39.449
39.228
38.818
38.388
38.053
37.84
37.709
37.587
37.398
37.169
37.012
37.004
37.166
37.421
37.667
37.838
37.905
37.874
37.765
37.614
37.452
37.31
37.16
36.965
36.72
36.504
36.373
36.314
36.279
36.262
36.26
36.264
36.27
36.265
36.257
36.22
36.156
36.06
35.978
35.962
36.107
36.522
37.256
38.166
39.013
39.551
39.686
39.489
39.14
38.803
38.535
38.289
38.062
37.919
37.854
37.766
37.644
37.54
37.488
37.505
37.596
37.705
37.766
37.771
37.728
37.634
37.473
37.268
37.105
36.959
36.783
36.609
36.508
36.437
36.339
36.24
36.179
36.154
36.132
36.067
35.98
35.905
35.865
35.856
35.84
35.782
35.727
35.716
35.7
35.679
35.855
36.43
37.376
38.415
39.235
39.637
39.639
39.406
39.077
38.754
38.481
38.262
38.12
38.047
38.01
37.983
37.931
37.831
37.73
37.683
37.704
37.75
37.748
37.695
37.604
37.483
37.366
37.264
37.162
37.045
36.887
36.697
36.522
36.392
36.294
36.226
36.165
36.086
36.001
35.938
35.903
35.861
35.801
35.743
35.71
35.695
35.673
35.621
35.525
35.388
35.236
35.134
35.142
35.356
35.89
36.798
37.896
38.834
39.353
39.422
39.165
38.781
38.404
38.1
37.909
37.812
37.75
37.701
37.659
37.586
37.48
37.368
37.303
37.316
37.359
37.39
37.39
37.341
37.25
37.144
37.04
36.899
36.714
36.516
36.311
36.1
35.948
35.88
35.845
35.771
35.673
35.614
35.593
35.574
35.533
35.496
35.477
35.437
35.339
35.249
35.2
35.159
35.091
35.004
34.918
34.851
34.8
34.773
34.759
34.715
34.719
34.991
35.706
36.785
37.922
38.774
39.169
39.173
38.9
38.512
38.129
37.796
37.567
37.446
37.365
37.274
37.178
37.071
36.968
36.918
36.98
37.092
37.151
37.132
37.082
36.999
36.875
36.739
36.604
36.47
36.321
36.165
36.017
35.878
35.772
35.674
35.568
35.474
35.425
35.397
35.381
35.403
35.417
35.419
35.405
35.326
35.211
35.125
35.074
35.022
34.979
34.96
34.985
34.989
34.968
34.941
34.874
34.752
34.644
34.611
34.698
35.062
35.869
36.997
38.099
38.863
39.144
38.998
38.609
38.155
37.744
37.417
37.184
37.027
36.944
36.864
36.753
36.662
36.613
36.639
36.719
36.82
36.922
37.005
37.035
36.988
36.869
36.724
36.567
36.388
36.219
36.07
35.967
35.888
35.77
35.629
35.518
35.453
35.419
35.415
35.433
35.419
35.388
35.356
35.303
35.221
35.155
35.153
35.157
35.097
35.01
34.96
34.928
34.871
34.814
34.766
34.768
34.947
35.457
36.358
37.458
38.373
38.794
38.715
38.35
37.894
37.448
37.067
36.761
36.513
36.303
36.097
35.9
35.782
35.78
35.884
36.076
36.32
36.554
36.699
36.734
36.667
36.522
36.343
36.166
36.007
35.819
35.58
35.34
35.195
35.157
35.178
35.209
35.199
35.181
35.155
35.126
35.117
35.101
35.05
34.998
34.983
35.022
35.084
35.097
35.047
34.947
34.886
34.984
35.348
36.049
36.994
37.892
38.461
38.615
38.427
38.027
37.537
37.081
36.714
36.427
36.188
35.966
35.775
35.623
35.557
35.634
35.873
36.242
36.636
36.903
36.946
36.831
36.692
36.538
36.337
36.111
35.914
35.76
35.605
35.449
35.321
35.244
35.228
35.234
35.244
35.255
35.255
35.236
35.187
35.134
35.124
35.163
35.204
35.206
35.21
35.377
35.905
36.783
37.769
38.568
38.972
38.948
38.609
38.14
37.678
37.263
36.893
36.598
36.375
36.215
36.078
35.956
35.911
35.998
36.182
36.408
36.646
36.833
36.891
36.81
36.646
36.471
36.301
36.122
35.951
35.779
35.598
35.418
35.249
35.111
35.038
35.042
35.073
35.072
35.047
35.033
35.053
35.076
35.072
35.038
34.999
34.949
34.899
34.946
35.28
36.043
37.15
38.255
39.027
39.342
39.256
38.917
38.481
38.055
37.721
37.447
37.216
37.024
36.86
36.711
36.551
36.426
36.354
36.388
36.517
36.7
36.842
36.871
36.808
36.711
36.585
36.416
36.216
36.013
35.825
35.649
35.502
35.386
35.276
35.19
35.134
35.121
35.124
35.121
35.111
35.107
35.121
35.121
35.068
34.996
34.966
35.001
35.024
35.002
35.01
35.232
35.893
36.923
38.018
38.852
39.24
39.21
38.925
38.496
38.003
37.554
37.204
36.947
36.764
36.629
36.567
36.543
36.511
36.476
36.475
36.552
36.673
36.796
36.894
36.941
36.889
36.735
36.534
36.363
36.227
36.133
36.019
35.864
35.701
35.578
35.517
35.468
35.439
35.42
35.389
35.347
35.322
35.317
35.279
35.188
35.082
35.005
34.996
35.03
35.043
35.008
34.956
34.916
35.041
35.514
36.404
37.535
38.605
39.311
39.501
39.303
38.935
38.506
38.109
37.792
37.514
37.232
36.983
36.836
36.789
36.766
36.761
36.798
36.844
36.906
37.0
37.089
37.13
37.083
36.916
36.643
36.358
36.171
36.085
36.01
35.884
35.726
35.608
35.521
35.442
35.396
35.371
35.358
35.364
35.375
35.393
35.37
35.309
35.254
35.236
35.245
35.207
35.116
35.02
34.96
34.928
34.88
34.827
34.862
35.17
35.907
37.006
38.163
39.047
39.482
39.471
39.167
38.733
38.292
37.924
37.645
37.424
37.255
37.104
36.943
36.783
36.696
36.737
36.884
37.081
37.244
37.329
37.345
37.306
37.202
37.03
36.829
36.661
36.515
36.353
36.2
36.069
35.972
35.891
35.789
35.677
35.585
35.547
35.534
35.521
35.494
35.452
35.411
35.382
35.338
35.256
35.178
35.139
35.148
35.152
35.141
35.096
35.04
35.049
35.301
35.939
36.955
38.097
39.033
39.501
39.468
39.107
38.62
38.164
37.777
37.414
37.077
36.809
36.604
36.426
36.289
36.253
36.351
36.566
36.811
37.046
37.25
37.348
37.283
37.084
36.852
36.623
36.404
36.216
36.073
35.962
35.838
35.711
35.606
35.52
35.453
35.419
35.417
35.424
35.429
35.445
35.456
35.427
35.379
35.341
35.313
35.253
35.165
35.127
35.292
35.813
36.708
37.783
38.698
39.189
39.23
38.959
38.522
38.032
37.559
37.171
36.839
36.546
36.294
36.064
35.903
35.891
36.082
36.434
36.814
37.133
37.337
37.404
37.334
37.175
36.98
36.779
36.579
36.386
36.18
35.99
35.846
35.77
35.732
35.679
35.559
35.439
35.393
35.425
35.478
35.493
35.489
35.474
35.443
35.41
35.47
35.735
36.33
37.262
38.319
39.197
39.651
39.639
39.298
38.831
38.382
37.99
37.647
37.354
37.101
36.852
36.61
36.412
36.314
36.374
36.593
36.905
37.248
37.534
37.643
37.565
37.378
37.148
36.918
36.717
36.532
36.352
36.19
36.047
35.889
35.754
35.688
35.687
35.68
35.666
35.652
35.642
35.651
35.649
35.61
35.552
35.549
35.721
36.159
36.942
38.013
39.102
39.894
40.223
40.109
39.718
39.256
38.854
38.531
38.271
38.056
37.855
37.641
37.429
37.26
37.181
37.218
37.347
37.532
37.711
37.824
37.847
37.773
37.615
37.406
37.186
36.959
36.751
36.594
36.461
36.31
36.168
36.054
35.967
35.912
35.87
35.817
35.762
35.707
35.638
35.587
35.596
35.635
35.633
35.559
35.454
35.427
35.694
36.427
37.567
38.8
39.769
40.258
40.285
40.023
39.651
39.266
38.939
38.658
38.427
38.241
38.067
37.904
37.759
37.667
37.635
37.629
37.627
37.66
37.705
37.729
37.725
37.654
37.473
37.27
37.147
37.075
36.982
36.819
36.571
36.317
36.125
36.024
35.985
35.955
35.9
35.815
35.741
35.706
35.693
35.689
35.695
35.693
35.646
35.547
35.416
35.295
35.225
35.228
35.4
35.932
36.883
38.088
39.227
39.983
40.223
40.024
39.607
39.171
38.792
38.479
38.231
38.075
37.997
37.909
37.777
37.642
37.517
37.449
37.469
37.568
37.687
37.734
37.676
37.553
37.38
37.174
36.961
36.773
36.633
36.518
36.379
36.219
36.029
35.837
35.703
35.65
35.606
35.57
35.543
35.514
35.466
35.411
35.351
35.305
35.303
35.307
35.27
35.168
35.053
34.984
34.922
34.83
34.783
34.926
35.464
36.486
37.768
38.894
39.56
39.716
39.517
39.132
38.708
38.326
38.011
37.798
37.655
37.515
37.37
37.232
37.11
37.059
37.104
37.197
37.302
37.396
37.438
37.422
37.329
37.178
37.021
36.865
36.697
36.503
36.305
36.122
35.974
35.849
35.733
35.632
35.54
35.481
35.48
35.519
35.53
35.467
35.385
35.342
35.333
35.312
35.24
35.121
35.014
34.959
34.922
34.862
34.777
34.736
34.81
35.124
35.81
36.848
38.028
39.077
39.741
39.895
39.607
39.141
38.699
38.351
38.097
37.88
37.67
37.47
37.293
37.152
37.059
37.04
37.095
37.2
37.325
37.422
37.465
37.42
37.267
37.062
36.856
36.673
36.516
36.393
36.269
36.134
35.976
35.819
35.675
35.578
35.531
35.525
35.544
35.55
35.541
35.511
35.447
35.393
35.368
35.34
35.32
35.275
35.234
35.282
35.565
36.204
37.204
38.331
39.223
39.643
39.577
39.201
38.73
38.306
37.975
37.729
37.517
37.331
37.163
36.986
36.836
36.785
36.827
36.92
37.082
37.291
37.443
37.476
37.398
37.23
37.01
36.787
36.597
36.463
36.337
36.162
35.975
35.833
35.763
35.725
35.673
35.605
35.559
35.534
35.507
35.483
35.431
35.371
35.358
35.531
36.028
36.889
37.925
38.837
39.386
39.441
39.077
38.54
38.06
37.653
37.285
36.963
36.713
36.509
36.314
36.173
36.154
36.267
36.469
36.712
36.929
37.071
37.115
37.051
36.925
36.771
36.571
36.367
36.176
35.997
35.799
35.611
35.469
35.401
35.381
35.373
35.375
35.34
35.27
35.2
35.137
35.111
35.196
35.487
36.094
37.013
38.025
38.815
39.195
39.128
38.738
38.223
37.741
37.355
37.047
36.771
36.506
36.236
36.039
36.003
36.111
36.311
36.57
36.843
37.076
37.199
37.173
37.042
36.891
36.724
36.518
36.289
36.046
35.838
35.668
35.541
35.449
35.386
35.342
35.33
35.348
35.358
35.38
35.415
35.418
35.465
35.712
36.266
37.143
38.159
39.004
39.478
39.529
39.26
38.826
38.366
37.961
37.634
37.409
37.236
37.056
36.858
36.722
36.668
36.706
36.863
37.074
37.246
37.321
37.305
37.196
37.009
36.787
36.584
36.457
36.369
36.236
36.061
35.898
35.753
35.636
35.572
35.55
35.526
35.49
35.456
35.45
35.461
35.448
35.405
35.359
35.446
35.876
36.721
37.823
38.897
39.676
40.024
39.933
39.529
38.983
38.485
38.172
38.041
37.968
37.862
37.724
37.541
37.344
37.205
37.153
37.195
37.304
37.417
37.45
37.389
37.283
37.148
36.978
36.783
36.601
36.439
36.274
36.079
35.891
35.75
35.653
35.594
35.547
35.51
35.47
35.404
35.339
35.309
35.314
35.34
35.349
35.316
35.2
35.035
34.95
35.1
35.633
36.556
37.718
38.812
39.512
39.717
39.516
39.122
38.675
38.268
37.969
37.817
37.75
37.71
37.61
37.426
37.224
37.073
37.014
37.092
37.252
37.356
37.336
37.225
37.101
36.989
36.876
36.732
36.558
36.372
36.183
36.014
35.85
35.711
35.627
35.584
35.555
35.52
35.448
35.355
35.276
35.247
35.253
35.246
35.213
35.147
35.062
34.964
34.882
34.847
34.834
34.776
34.691
34.7
35.0
35.752
36.875
38.112
39.147
39.686
39.694
39.347
38.896
38.506
38.195
37.914
37.691
37.549
37.449
37.348
37.209
37.086
37.063
37.132
37.23
37.336
37.434
37.47
37.415
37.278
37.114
36.961
36.784
36.602
36.426
36.246
36.077
35.961
35.864
35.788
35.743
35.694
35.637
35.603
35.573
35.539
35.507
35.486
35.445
35.362
35.259
35.209
35.199
35.173
35.097
34.997
34.924
34.886
34.845
34.777
34.761
34.975
35.609
36.652
37.861
38.891
39.475
39.521
39.195
38.714
38.244
37.856
37.545
37.311
37.143
37.031
36.943
36.878
36.818
36.784
36.82
36.909
37.029
37.162
37.275
37.286
37.154
36.928
36.713
36.548
36.382
36.192
36.004
35.861
35.787
35.744
35.663
35.543
35.466
35.451
35.464
35.444
35.369
35.286
35.255
35.247
35.214
35.152
35.092
35.056
34.991
34.911
34.832
34.757
34.706
34.721
34.871
35.318
36.164
37.287
38.347
39.017
39.174
38.943
38.482
37.946
37.439
37.026
36.755
36.579
36.409
36.224
36.067
36.01
36.09
36.294
36.572
36.83
37.009
37.108
37.116
36.988
36.754
36.492
36.249
36.045
35.878
35.726
35.577
35.431
35.324
35.254
35.178
35.109
35.098
35.132
35.161
35.138
35.088
35.063
35.054
35.028
34.977
34.925
34.85
34.757
34.691
34.63
34.652
34.929
35.608
36.66
37.837
38.806
39.307
39.286
38.917
38.445
38.008
37.645
37.365
37.14
36.944
36.735
36.533
36.365
36.287
36.326
36.457
36.624
36.758
36.857
36.893
36.852
36.756
36.601
36.398
36.18
35.96
35.742
35.541
35.372
35.239
35.136
35.058
34.986
34.886
34.796
34.795
34.853
34.874
34.837
34.76
34.678
34.64
34.64
34.65
34.687
34.701
34.64
34.526
34.396
34.299
34.236
34.234
34.431
35.03
36.122
37.482
38.687
39.388
39.53
39.255
38.759
38.235
37.808
37.486
37.223
36.973
36.741
36.541
36.38
36.263
36.246
36.325
36.46
36.591
36.688
36.758
36.774
36.724
36.58
36.366
36.154
35.984
35.826
35.676
35.511
35.351
35.226
35.131
35.058
34.996
34.937
34.868
34.844
34.878
34.903
34.909
34.873
34.794
34.727
34.685
34.671
34.674
34.682
34.651
34.571
34.475
34.397
34.359
34.36
34.375
34.555
35.139
36.204
37.548
38.759
39.487
39.647
39.362
38.868
38.343
37.883
37.516
37.225
36.992
36.795
36.609
36.415
36.279
36.29
36.426
36.593
36.729
36.821
36.9
36.974
36.982
36.905
36.74
36.511
36.273
36.059
35.842
35.649
35.515
35.414
35.311
35.201
35.103
35.043
35.053
35.108
35.155
35.189
35.19
35.151
35.086
35.009
34.93
34.878
34.848
34.826
34.824
34.827
34.807
34.76
34.711
34.678
34.775
35.17
35.978
37.131
38.363
39.305
39.737
39.663
39.258
38.686
38.089
37.559
37.141
36.848
36.649
36.487
36.283
36.079
36.002
36.135
36.426
36.724
36.945
37.068
37.079
36.994
36.858
36.732
36.61
36.435
36.224
36.015
35.831
35.663
35.514
35.385
35.304
35.282
35.293
35.319
35.34
35.31
35.282
35.265
35.248
35.247
35.257
35.244
35.186
35.122
35.064
35.025
35.041
35.246
35.821
36.769
37.856
38.788
39.273
39.282
38.988
38.544
38.023
37.496
37.059
36.738
36.483
36.206
35.899
35.706
35.741
35.972
36.314
36.657
36.928
37.129
37.25
37.269
37.179
36.996
36.759
36.512
36.268
36.03
35.822
35.664
35.567
35.525
35.523
35.523
35.49
35.457
35.427
35.404
35.39
35.404
35.428
35.422
35.412
35.376
35.298
35.309
35.608
36.327
37.388
38.503
39.338
39.755
39.78
39.49
39.014
38.522
38.074
37.662
37.306
37.035
36.85
36.682
36.528
36.472
36.566
36.787
37.08
37.36
37.547
37.571
37.452
37.302
37.155
36.993
36.795
36.555
36.317
36.138
36.009
35.907
35.822
35.73
35.616
35.522
35.484
35.508
35.557
35.589
35.583
35.561
35.52
35.476
35.437
35.393
35.362
35.421
35.727
36.434
37.532
38.768
39.767
40.284
40.309
40.043
39.673
39.274
38.915
38.63
38.427
38.264
38.121
37.986
37.862
37.76
37.677
37.66
37.736
37.889
38.047
38.135
38.121
38.005
37.838
37.661
37.485
37.287
37.072
36.874
36.699
36.562
36.461
36.363
36.258
36.208
36.21
36.219
36.196
36.123
36.03
35.96
35.9
35.846
35.808
35.793
35.764
35.724
35.671
35.696
35.96
36.666
37.805
39.075
40.112
40.677
40.752
40.5
40.129
39.796
39.519
39.269
39.059
38.895
38.778
38.662
38.503
38.372
38.328
38.36
38.431
38.538
38.635
38.639
38.536
38.358
38.168
37.989
37.814
37.648
37.478
37.292
37.12
36.997
36.908
36.834
36.721
36.576
36.447
36.355
36.301
36.269
36.22
36.147
36.066
36.024
35.999
35.968
35.901
35.77
35.608
35.466
35.401
35.407
35.552
35.991
36.86
38.11
39.415
40.416
40.902
40.904
40.617
40.213
39.82
39.493
39.237
39.072
38.983
38.898
38.723
38.501
38.337
38.307
38.4
38.513
38.594
38.629
38.62
38.541
38.431
38.313
38.149
37.931
37.725
37.551
37.378
37.202
37.033
36.866
36.725
36.636
36.596
36.559
36.496
36.404
36.319
36.258
36.19
36.114
36.053
35.998
35.955
35.909
35.863
35.818
35.748
35.665
35.578
35.473
35.396
35.462
35.817
36.627
37.848
39.183
40.254
40.804
40.832
40.48
39.945
39.447
39.11
38.935
38.801
38.608
38.345
38.096
37.951
37.936
38.019
38.162
38.322
38.462
38.549
38.534
38.395
38.165
37.938
37.759
37.605
37.439
37.25
37.06
36.906
36.802
36.706
36.591
36.484
36.388
36.281
36.195
36.155
36.132
36.089
36.004
35.934
35.923
35.916
35.843
35.689
35.547
35.463
35.423
35.409
35.375
35.289
35.237
35.403
36.006
37.085
38.375
39.454
40.021
40.061
39.728
39.269
38.824
38.441
38.12
37.823
37.539
37.273
37.026
36.872
36.893
37.065
37.303
37.535
37.769
37.953
37.983
37.836
37.593
37.391
37.218
37.013
36.775
36.527
36.287
36.059
35.856
35.735
35.721
35.766
35.805
35.817
35.771
35.681
35.602
35.547
35.489
35.43
35.356
35.305
35.286
35.275
35.255
35.183
35.023
34.861
34.807
34.996
35.6
36.619
37.836
38.949
39.709
39.989
39.858
39.485
39.001
38.509
38.078
37.732
37.439
37.168
36.928
36.767
36.711
36.759
36.917
37.135
37.319
37.405
37.401
37.339
37.257
37.116
36.918
36.667
36.38
36.1
35.866
35.701
35.564
35.422
35.328
35.274
35.198
35.13
35.106
35.103
35.099
35.086
35.046
34.973
34.888
34.804
34.729
34.664
34.598
34.547
34.489
34.413
34.335
34.264
34.209
34.228
34.562
35.44
36.798
38.308
39.492
40.102
40.192
39.906
39.45
38.992
38.596
38.24
37.929
37.724
37.6
37.479
37.329
37.223
37.199
37.222
37.265
37.318
37.373
37.404
37.417
37.387
37.278
37.064
36.778
36.482
36.232
36.041
35.874
35.724
35.597
35.479
35.37
35.272
35.173
35.082
34.993
34.923
34.897
34.902
34.864
34.797
34.749
34.698
34.641
34.57
34.484
34.385
34.297
34.219
34.134
34.041
33.927
33.828
33.872
34.32
35.32
36.745
38.248
39.486
40.201
40.338
40.064
39.583
39.03
38.529
38.158
37.923
37.773
37.606
37.395
37.215
37.1
37.073
37.133
37.247
37.356
37.453
37.52
37.505
37.398
37.235
37.042
36.828
36.618
36.425
36.239
36.045
35.839
35.632
35.468
35.365
35.317
35.288
35.243
35.201
35.172
35.15
35.121
35.064
34.969
34.863
34.824
34.822
34.772
34.665
34.558
34.475
34.402
34.342
34.305
34.255
34.188
34.218
34.559
35.434
36.843
38.446
39.727
40.393
40.444
40.061
39.501
38.935
38.466
38.133
37.874
37.615
37.347
37.093
36.895
36.787
36.802
36.937
37.15
37.39
37.592
37.722
37.741
37.607
37.364
37.136
36.924
36.669
36.373
36.066
35.809
35.633
35.509
35.419
35.358
35.299
35.22
35.156
35.123
35.14
35.157
35.181
35.201
35.152
35.045
34.918
34.843
34.84
34.857
34.841
34.777
34.706
34.726
35.038
35.855
37.107
38.454
39.46
39.914
39.86
39.507
39.0
38.45
37.945
37.52
37.16
36.827
36.501
36.225
36.064
36.074
36.29
36.668
37.066
37.368
37.553
37.656
37.652
37.505
37.224
36.898
36.603
36.345
36.106
35.891
35.692
35.513
35.362
35.258
35.193
35.173
35.209
35.261
35.261
35.24
35.225
35.209
35.22
35.243
35.23
35.152
35.061
35.085
35.386
36.13
37.291
38.572
39.586
40.098
40.136
39.841
39.358
38.853
38.379
37.965
37.581
37.204
36.865
36.645
36.612
36.74
36.929
37.142
37.365
37.586
37.801
37.957
37.947
37.779
37.527
37.224
36.902
36.602
36.347
36.16
36.006
35.863
35.721
35.595
35.521
35.499
35.495
35.484
35.463
35.451
35.481
35.524
35.512
35.421
35.296
35.25
35.448
36.022
37.054
38.407
39.709
40.599
40.955
40.856
40.459
39.93
39.439
39.061
38.788
38.587
38.432
38.272
38.076
37.893
37.788
37.819
37.932
38.094
38.287
38.41
38.412
38.312
38.161
37.982
37.753
37.466
37.144
36.84
36.62
36.49
36.416
36.35
36.229
36.088
35.97
35.891
35.828
35.751
35.692
35.665
35.667
35.645
35.567
35.469
35.37
35.28
35.182
35.091
35.133
35.536
36.483
37.882
39.358
40.494
41.058
41.088
40.792
40.362
39.929
39.545
39.211
38.94
38.748
38.6
38.448
38.314
38.211
38.114
38.094
38.16
38.256
38.308
38.282
38.156
37.949
37.724
37.524
37.32
37.122
36.92
36.704
36.48
36.263
36.088
35.981
35.914
35.856
35.791
35.7
35.612
35.524
35.461
35.411
35.35
35.28
35.186
35.051
34.906
34.785
34.69
34.584
34.481
34.364
34.23
34.167
34.349
34.977
36.124
37.613
39.049
40.046
40.448
40.337
39.908
39.398
38.973
38.624
38.356
38.162
38.02
37.921
37.809
37.65
37.488
37.4
37.419
37.482
37.545
37.569
37.534
37.445
37.309
37.145
36.949
36.716
36.471
36.28
36.139
36.018
35.895
35.767
35.641
35.527
35.424
35.361
35.356
35.386
35.383
35.338
35.267
35.187
35.101
34.994
34.885
34.787
34.705
34.64
34.572
34.501
34.454
34.436
34.4
34.31
34.212
34.271
34.701
35.663
37.062
38.504
39.532
39.94
39.824
39.397
38.858
38.35
37.926
37.601
37.377
37.222
37.098
36.969
36.819
36.704
36.679
36.764
36.941
37.099
37.155
37.11
37.018
36.923
36.794
36.605
36.347
36.074
35.834
35.636
35.501
35.406
35.308
35.202
35.126
35.065
35.024
34.98
34.921
34.885
34.876
34.869
34.839
34.789
34.724
34.633
34.541
34.481
34.474
34.464
34.406
34.286
34.14
34.005
33.967
34.143
34.685
35.687
36.978
38.186
38.951
39.105
38.785
38.256
37.694
37.154
36.673
36.291
36.022
35.849
35.708
35.582
35.547
35.635
35.853
36.144
36.401
36.547
36.595
36.589
36.494
36.307
36.095
35.865
35.581
35.298
35.061
34.911
34.822
34.753
34.706
34.698
34.709
34.736
34.766
34.783
34.778
34.744
34.693
34.637
34.585
34.559
34.583
34.605
34.581
34.512
34.42
34.351
34.322
34.382
34.719
35.498
36.672
37.908
38.815
39.193
39.091
38.67
38.106
37.532
37.025
36.639
36.394
36.221
36.046
35.88
35.769
35.756
35.878
36.115
36.407
36.713
36.926
36.96
36.846
36.636
36.392
36.18
35.98
35.776
35.56
35.362
35.182
35.033
34.908
34.811
34.792
34.794
34.777
34.769
34.784
34.793
34.803
34.781
34.728
34.68
34.633
34.606
34.608
34.581
34.514
34.419
34.332
34.239
34.244
34.566
35.372
36.62
38.039
39.2
39.798
39.821
39.462
38.965
38.486
38.083
37.731
37.419
37.195
37.062
36.932
36.765
36.617
36.554
36.634
36.801
36.965
37.056
37.071
37.044
36.936
36.742
36.481
36.23
36.007
35.789
35.581
35.402
35.26
35.174
35.131
35.085
34.987
34.865
34.771
34.738
34.743
34.777
34.798
34.781
34.715
34.596
34.484
34.436
34.42
34.383
34.338
34.299
34.263
34.241
34.188
34.075
34.001
34.121
34.63
35.699
37.204
38.677
39.68
40.048
39.91
39.47
38.93
38.403
37.934
37.575
37.302
37.126
37.012
36.91
36.819
36.728
36.682
36.709
36.839
37.006
37.115
37.113
37.025
36.887
36.734
36.568
36.392
36.206
36.011
35.823
35.655
35.494
35.34
35.223
35.146
35.093
35.068
35.068
35.058
35.043
35.046
35.047
35.02
34.976
34.921
34.87
34.839
34.806
34.745
34.663
34.576
34.537
34.508
34.458
34.407
34.346
34.279
34.305
34.651
35.506
36.849
38.334
39.499
40.082
40.095
39.679
39.048
38.415
37.896
37.491
37.16
36.892
36.664
36.443
36.257
36.194
36.264
36.422
36.636
36.859
37.031
37.105
37.067
36.947
36.801
36.639
36.434
36.162
35.883
35.655
35.479
35.343
35.218
35.087
34.989
34.971
35.013
35.06
35.079
35.067
35.05
35.056
35.071
35.049
34.991
34.941
34.937
34.928
34.874
34.787
34.696
34.613
34.561
34.594
34.809
35.387
36.415
37.683
38.797
39.453
39.595
39.326
38.825
38.221
37.619
37.121
36.749
36.437
36.156
35.917
35.741
35.668
35.746
35.97
36.283
36.638
36.97
37.164
37.209
37.135
36.961
36.736
36.464
36.165
35.863
35.603
35.39
35.237
35.134
35.067
35.04
35.047
35.074
35.12
35.156
35.14
35.118
35.111
35.122
35.117
35.081
35.034
34.994
34.94
34.921
35.101
35.669
36.671
37.89
38.989
39.647
39.746
39.412
38.854
38.251
37.718
37.294
36.95
36.636
36.334
36.091
35.958
35.933
36.034
36.281
36.612
36.915
37.121
37.233
37.261
37.185
36.998
36.748
36.484
36.219
35.987
35.779
35.591
35.424
35.283
35.167
35.111
35.119
35.128
35.113
35.094
35.076
35.095
35.152
35.191
35.178
35.148
35.103
35.032
34.951
34.92
35.082
35.627
36.643
37.992
39.309
40.212
40.537
40.365
39.915
39.379
38.861
38.432
38.12
37.899
37.735
37.589
37.41
37.225
37.094
37.054
37.121
37.27
37.436
37.578
37.62
37.549
37.394
37.17
36.949
36.755
36.585
36.399
36.197
36.0
35.849
35.753
35.669
35.555
35.458
35.407
35.406
35.443
35.449
35.398
35.331
35.263
35.236
35.229
35.189
35.12
35.047
34.964
34.873
34.819
34.872
35.176
35.934
37.163
38.624
39.896
40.651
40.806
40.495
39.993
39.493
39.065
38.741
38.519
38.357
38.216
38.088
37.949
37.799
37.68
37.659
37.753
37.884
37.965
37.986
37.979
37.903
37.728
37.505
37.295
37.107
36.898
36.66
36.423
36.248
36.145
36.058
35.961
35.869
35.822
35.825
35.813
35.767
35.689
35.617
35.572
35.509
35.413
35.328
35.265
35.225
35.18
35.157
35.15
35.12
35.046
34.917
34.806
34.874
35.327
36.323
37.762
39.246
40.348
40.854
40.808
40.433
39.932
39.451
39.064
38.771
38.534
38.356
38.22
38.079
37.929
37.808
37.758
37.77
37.86
38.003
38.144
38.192
38.106
37.93
37.734
37.512
37.262
37.037
36.864
36.726
36.588
36.483
36.39
36.276
36.166
36.065
36.008
36.015
36.033
35.996
35.872
35.741
35.685
35.668
35.626
35.551
35.487
35.417
35.333
35.234
35.111
35.009
34.93
34.85
34.83
35.071
35.754
36.893
38.27
39.507
40.271
40.446
40.171
39.664
39.084
38.523
38.066
37.75
37.54
37.366
37.219
37.097
37.018
37.018
37.158
37.429
37.71
37.913
37.99
37.924
37.771
37.554
37.279
36.966
36.687
36.471
36.277
36.106
35.988
35.885
35.757
35.623
35.554
35.556
35.598
35.646
35.681
35.68
35.626
35.545
35.476
35.414
35.347
35.261
35.153
35.041
34.952
34.939
35.144
35.763
36.868
38.226
39.431
40.136
40.261
39.933
39.387
38.822
38.345
37.978
37.661
37.382
37.148
36.908
36.67
36.541
36.57
36.745
37.034
37.348
37.574
37.662
37.609
37.411
37.101
36.774
36.536
36.371
36.239
36.089
35.926
35.778
35.638
35.497
35.381
35.322
35.322
35.314
35.267
35.196
35.12
35.05
34.979
34.908
34.864
34.846
34.787
34.702
34.647
34.602
34.529
34.447
34.411
34.594
35.205
36.298
37.725
39.138
40.122
40.46
40.233
39.728
39.158
38.625
38.185
37.872
37.655
37.494
37.359
37.243
37.145
37.07
37.069
37.137
37.26
37.421
37.567
37.598
37.487
37.266
36.983
36.708
36.497
36.349
36.197
36.045
35.914
35.781
35.648
35.544
35.443
35.326
35.249
35.249
35.277
35.259
35.171
35.094
35.092
35.131
35.15
35.118
35.022
34.895
34.793
34.673
34.518
34.379
34.292
34.376
34.867
35.869
37.266
38.702
39.761
40.212
40.119
39.707
39.168
38.619
38.152
37.796
37.529
37.341
37.196
37.052
36.92
36.848
36.865
36.97
37.109
37.222
37.26
37.232
37.171
37.075
36.923
36.7
36.441
36.18
35.937
35.736
35.608
35.545
35.469
35.339
35.222
35.182
35.207
35.246
35.24
35.177
35.096
35.034
35.001
34.987
34.961
34.892
34.783
34.679
34.608
34.552
34.49
34.459
34.54
34.899
35.679
36.835
38.041
38.941
39.34
39.248
38.815
38.213
37.603
37.054
36.615
36.288
36.067
35.923
35.809
35.75
35.811
36.0
36.281
36.598
36.865
37.002
36.999
36.867
36.655
36.398
36.141
35.905
35.706
35.518
35.32
35.145
35.015
34.927
34.884
34.906
34.971
35.025
35.052
35.072
35.099
35.123
35.137
35.116
35.038
34.936
34.861
34.805
34.813
35.027
35.595
36.562
37.685
38.596
39.023
38.982
38.636
38.17
37.689
37.237
36.806
36.405
36.068
35.777
35.546
35.452
35.545
35.813
36.157
36.466
36.703
36.842
36.866
36.779
36.61
36.403
36.181
35.927
35.652
35.409
35.253
35.161
35.09
35.038
34.992
34.938
34.856
34.802
34.809
34.836
34.882
34.929
34.944
34.954
34.935
34.891
34.837
34.782
34.738
34.809
35.254
36.188
37.441
38.681
39.517
39.78
39.605
39.182
38.653
38.175
37.786
37.446
37.176
36.974
36.816
36.704
36.661
36.701
36.784
36.879
37.015
37.191
37.356
37.415
37.336
37.187
36.991
36.777
36.537
36.311
36.118
35.953
35.83
35.739
35.672
35.645
35.64
35.618
35.571
35.548
35.549
35.553
35.543
35.521
35.492
35.466
35.418
35.346
35.29
35.244
35.202
35.194
35.326
35.763
36.612
37.808
39.068
40.005
40.393
40.275
39.864
39.354
38.863
38.464
38.174
37.966
37.796
37.632
37.479
37.384
37.403
37.52
37.675
37.854
38.04
38.177
38.205
38.157
38.055
37.897
37.71
37.498
37.282
37.075
36.875
36.713
36.583
36.482
36.421
36.388
36.393
36.398
36.355
36.299
36.229
36.138
36.055
35.993
35.931
35.845
35.747
35.726
35.854
36.266
37.098
38.201
39.254
39.981
40.248
40.067
39.607
39.077
38.582
38.179
37.883
37.684
37.523
37.322
37.101
36.984
37.007
37.172
37.434
37.726
37.929
37.988
37.889
37.692
37.485
37.301
37.119
36.906
36.666
36.466
36.328
36.248
36.183
36.098
36.017
35.984
35.967
35.958
35.973
35.98
35.948
35.908
35.851
35.795
35.739
35.653
35.582
35.689
36.161
37.061
38.235
39.356
40.089
40.258
39.97
39.469
38.943
38.496
38.146
37.873
37.667
37.492
37.33
37.207
37.165
37.188
37.249
37.344
37.426
37.443
37.403
37.324
37.223
37.094
36.914
36.681
36.44
36.231
36.062
35.941
35.826
35.685
35.545
35.452
35.435
35.44
35.412
35.343
35.269
35.199
35.18
35.178
35.152
35.101
35.047
34.985
34.896
34.793
34.693
34.646
34.762
35.252
36.264
37.612
38.867
39.685
39.939
39.743
39.278
38.732
38.218
37.813
37.561
37.408
37.281
37.169
37.048
36.935
36.869
36.841
36.845
36.871
36.914
36.947
36.946
36.861
36.698
36.517
36.336
36.175
36.012
35.815
35.612
35.428
35.285
35.215
35.2
35.169
35.094
34.993
34.914
34.884
34.874
34.835
34.79
34.747
34.695
34.639
34.604
34.578
34.522
34.436
34.336
34.232
34.141
34.08
34.05
34.111
34.402
35.133
36.309
37.68
38.838
39.458
39.5
39.134
38.578
38.016
37.56
37.256
37.074
36.947
36.828
36.697
36.528
36.381
36.317
36.33
36.399
36.491
36.553
36.546
36.468
36.341
36.194
36.04
35.893
35.746
35.571
35.344
35.089
34.908
34.855
34.861
34.878
34.852
34.787
34.734
34.703
34.699
34.715
34.696
34.612
34.505
34.435
34.416
34.418
34.391
34.328
34.258
34.202
34.162
34.1
33.999
33.887
33.817
33.82
33.984
34.488
35.437
36.693
37.943
38.779
39.003
38.714
38.193
37.634
37.136
36.752
36.482
36.271
36.129
36.072
36.031
35.97
35.936
35.933
35.953
36.02
36.128
36.187
36.187
36.156
36.087
35.966
35.784
35.527
35.25
35.025
34.877
34.782
34.737
34.724
34.71
34.683
34.657
34.632
34.625
34.623
34.617
34.628
34.673
34.697
34.649
34.541
34.431
34.374
34.361
34.357
34.339
34.289
34.226
34.181
34.156
34.163
34.143
34.09
34.12
34.384
35.029
36.098
37.356
38.424
39.013
39.058
38.665
38.044
37.371
36.805
36.42
36.183
36.026
35.906
35.81
35.727
35.696
35.741
35.86
36.039
36.233
36.386
36.467
36.454
36.354
36.178
35.945
35.685
35.462
35.308
35.206
35.099
34.992
34.928
34.887
34.869
34.89
34.902
34.889
34.864
34.854
34.864
34.896
34.911
34.913
34.909
34.898
34.87
34.791
34.687
34.613
34.585
34.573
34.55
34.493
34.491
34.706
35.281
36.25
37.381
38.325
38.825
38.814
38.441
37.902
37.313
36.77
36.351
36.046
35.806
35.591
35.383
35.226
35.233
35.404
35.66
35.973
36.315
36.58
36.692
36.644
36.518
36.37
36.162
35.892
35.603
35.334
35.137
35.041
35.025
35.015
34.995
34.963
34.944
34.992
35.056
35.09
35.076
35.019
34.979
34.99
35.024
35.051
35.044
34.986
34.883
34.818
34.916
35.305
36.025
37.0
38.003
38.727
38.96
38.745
38.267
37.658
37.041
36.549
36.227
35.997
35.798
35.611
35.427
35.299
35.333
35.565
35.912
36.246
36.484
36.638
36.711
36.71
36.603
36.356
36.027
35.735
35.536
35.407
35.289
35.135
34.976
34.886
34.866
34.892
34.954
35.013
35.034
35.036
35.015
34.965
34.939
34.954
34.957
34.925
34.907
35.035
35.459
36.273
37.366
38.426
39.1
39.206
38.846
38.292
37.745
37.263
36.846
36.486
36.203
35.997
35.842
35.704
35.608
35.586
35.671
35.876
36.152
36.411
36.603
36.658
36.566
36.362
36.114
35.885
35.69
35.534
35.378
35.22
35.052
34.879
34.742
34.666
34.633
34.625
34.637
34.65
34.666
34.723
34.803
34.841
34.845
34.82
34.778
34.742
34.734
34.729
34.798
35.191
36.092
37.349
38.567
39.388
39.64
39.413
38.923
38.354
37.828
37.397
37.054
36.807
36.622
36.475
36.344
36.231
36.17
36.218
36.339
36.499
36.682
36.859
36.962
36.958
36.84
36.629
36.384
36.18
36.006
35.845
35.692
35.526
35.352
35.222
35.166
35.175
35.181
35.145
35.11
35.096
35.114
35.153
35.216
35.283
35.28
35.176
35.044
34.93
34.89
34.908
34.908
34.873
34.899
35.189
35.929
37.082
38.372
39.436
40.002
39.991
39.541
38.909
38.322
37.855
37.49
37.185
36.932
36.733
36.614
36.568
36.546
36.525
36.543
36.588
36.639
36.726
36.845
36.918
36.858
36.704
36.511
36.291
36.066
35.867
35.722
35.612
35.495
35.374
35.262
35.18
35.161
35.185
35.217
35.241
35.241
35.223
35.178
35.12
35.063
35.039
35.045
35.069
35.082
35.076
35.012
34.923
34.85
34.785
34.763
34.926
35.472
36.465
37.731
38.944
39.771
40.035
39.773
39.189
38.513
37.914
37.489
37.252
37.135
37.069
37.02
36.948
36.86
36.799
36.754
36.759
36.832
36.949
37.051
37.087
37.02
36.864
36.679
36.525
36.388
36.23
36.063
35.912
35.78
35.676
35.601
35.558
35.554
35.572
35.566
35.539
35.512
35.496
35.51
35.517
35.495
35.435
35.352
35.298
35.276
35.24
35.177
35.114
35.068
35.036
35.013
34.992
35.058
35.421
36.252
37.419
38.611
39.478
39.799
39.607
39.079
38.446
37.885
37.469
37.171
36.985
36.874
36.755
36.61
36.471
36.409
36.473
36.626
36.82
37.008
37.128
37.154
37.083
36.93
36.733
36.52
36.323
36.169
36.032
35.908
35.776
35.639
35.54
35.51
35.533
35.562
35.555
35.529
35.5
35.454
35.4
35.373
35.392
35.41
35.411
35.404
35.396
35.389
35.38
35.343
35.247
35.183
35.368
35.973
36.956
38.008
38.793
39.148
39.079
38.698
38.157
37.61
37.152
36.797
36.54
36.33
36.123
35.96
35.882
35.944
36.127
36.345
36.555
36.756
36.938
37.055
37.055
36.895
36.645
36.407
36.214
36.064
35.941
35.86
35.766
35.65
35.557
35.498
35.462
35.47
35.502
35.529
35.514
35.488
35.467
35.465
35.461
35.437
35.389
35.341
35.304
35.298
35.391
35.689
36.316
37.232
38.178
38.855
39.096
38.882
38.381
37.792
37.274
36.857
36.529
36.291
36.12
35.982
35.856
35.84
35.98
36.245
36.541
36.787
36.963
37.021
36.954
36.832
36.713
36.587
36.387
36.136
35.898
35.723
35.612
35.546
35.498
35.485
35.514
35.564
35.602
35.608
35.603
35.592
35.568
35.545
35.555
35.556
35.514
35.46
35.491
35.718
36.247
37.12
38.124
38.929
39.286
39.185
38.797
38.286
37.78
37.369
37.081
36.889
36.737
36.571
36.392
36.253
36.231
36.334
36.54
36.788
36.975
37.042
37.028
36.98
36.878
36.711
36.517
36.303
36.066
35.853
35.69
35.585
35.521
35.509
35.515
35.519
35.503
35.472
35.453
35.463
35.471
35.436
35.369
35.346
35.359
35.366
35.371
35.32
35.242
35.269
35.607
36.388
37.506
38.595
39.309
39.528
39.329
38.912
38.437
37.966
37.574
37.3
37.148
37.087
37.044
36.961
36.831
36.706
36.652
36.681
36.753
36.822
36.888
36.931
36.911
36.805
36.65
36.504
36.372
36.24
36.098
35.943
35.773
35.597
35.453
35.404
35.439
35.492
35.508
35.47
35.41
35.381
35.382
35.389
35.394
35.365
35.322
35.258
35.173
35.125
35.095
35.068
35.106
35.333
35.888
36.815
37.923
38.897
39.431
39.423
39.036
38.544
38.122
37.806
37.573
37.431
37.352
37.294
37.245
37.162
37.02
36.888
36.834
36.882
36.985
37.055
37.076
37.067
37.0
36.867
36.711
36.557
36.413
36.265
36.106
35.965
35.845
35.768
35.741
35.76
35.783
35.759
35.69
35.608
35.554
35.549
35.529
35.482
35.435
35.368
35.294
35.285
35.311
35.298
35.221
35.089
34.973
34.923
34.976
35.224
35.843
36.872
38.056
39.043
39.55
39.562
39.233
38.746
38.274
37.916
37.642
37.439
37.31
37.224
37.133
37.019
36.94
36.9
36.92
36.979
37.065
37.162
37.211
37.167
37.033
36.837
36.657
36.534
36.436
36.338
36.211
36.054
35.923
35.867
35.841
35.821
35.81
35.778
35.718
35.689
35.721
35.763
35.767
35.726
35.638
35.548
35.508
35.508
35.497
35.458
35.41
35.356
35.285
35.205
35.123
35.066
35.118
35.419
36.113
37.157
38.304
39.192
39.593
39.487
39.046
38.508
38.013
37.624
37.338
37.11
36.939
36.813
36.711
36.65
36.642
36.66
36.729
36.841
36.965
37.06
37.096
37.045
36.912
36.737
36.522
36.329
36.18
36.054
35.941
35.814
35.711
35.656
35.623
35.634
35.659
35.664
35.665
35.65
35.627
35.595
35.551
35.515
35.5
35.462
35.414
35.376
35.36
35.318
35.255
35.193
35.149
35.178
35.388
35.88
36.666
37.609
38.446
38.91
38.891
38.525
38.019
37.501
37.052
36.707
36.46
36.278
36.142
36.043
35.958
35.94
36.059
36.317
36.635
36.877
36.992
36.995
36.925
36.801
36.613
36.373
36.143
35.969
35.851
35.719
35.579
35.485
35.422
35.382
35.401
35.44
35.463
35.478
35.482
35.474
35.476
35.466
35.442
35.394
35.331
35.27
35.233
35.255
35.364
35.66
36.247
37.064
37.899
38.5
38.757
38.652
38.229
37.634
37.064
36.678
36.442
36.277
36.105
35.889
35.723
35.689
35.81
36.023
36.253
36.473
36.652
36.744
36.755
36.706
36.586
36.403
36.2
36.01
35.825
35.659
35.548
35.5
35.467
35.408
35.368
35.36
35.354
35.35
35.377
35.415
35.414
35.384
35.33
35.284
35.28
35.284
35.323
35.472
35.87
36.593
37.536
38.436
39.021
39.144
38.873
38.4
37.872
37.37
36.959
36.681
36.538
36.473
36.417
36.335
36.257
36.223
36.287
36.473
36.738
36.99
37.102
37.065
36.948
36.77
36.529
36.265
36.019
35.834
35.716
35.646
35.602
35.572
35.562
35.552
35.528
35.516
35.518
35.504
35.48
35.468
35.469
35.49
35.497
35.48
35.422
35.348
35.331
35.511
36.049
36.966
38.081
39.033
39.534
39.526
39.171
38.686
38.204
37.817
37.528
37.312
37.16
37.036
36.929
36.841
36.794
36.806
36.87
36.976
37.088
37.144
37.143
37.105
37.021
36.906
36.747
36.55
36.357
36.179
36.056
35.994
35.932
35.858
35.804
35.78
35.772
35.746
35.711
35.675
35.65
35.62
35.593
35.537
35.477
35.443
35.442
35.434
35.39
35.299
35.22
35.319
35.822
36.774
37.907
38.868
39.428
39.539
39.297
38.878
38.433
38.051
37.766
37.594
37.493
37.415
37.321
37.217
37.14
37.116
37.143
37.193
37.222
37.224
37.21
37.171
37.104
36.998
36.847
36.692
36.52
36.344
36.212
36.126
36.087
36.066
36.033
36.015
36.011
35.988
35.971
35.966
35.909
35.802
35.723
35.723
35.732
35.732
35.724
35.697
35.66
35.599
35.495
35.368
35.268
35.263
35.509
36.186
37.298
38.561
39.549
39.998
39.923
39.528
39.028
38.551
38.186
37.947
37.797
37.711
37.639
37.549
37.446
37.364
37.315
37.332
37.418
37.534
37.625
37.635
37.529
37.354
37.174
37.011
36.859
36.706
36.527
36.349
36.243
36.193
36.157
36.117
36.081
36.038
35.979
35.926
35.887
35.873
35.87
35.864
35.839
35.796
35.759
35.732
35.692
35.66
35.753
36.161
36.985
38.074
39.099
39.701
39.762
39.422
38.943
38.51
38.183
37.952
37.796
37.661
37.532
37.417
37.289
37.15
37.051
37.051
37.138
37.241
37.336
37.37
37.341
37.259
37.139
36.964
36.761
36.571
36.425
36.286
36.153
36.078
36.074
36.058
35.97
35.855
35.786
35.761
35.774
35.811
35.83
35.804
35.749
35.68
35.662
35.81
36.226
36.977
37.984
38.968
39.635
39.837
39.632
39.191
38.685
38.26
37.976
37.793
37.645
37.479
37.301
37.151
37.075
37.088
37.18
37.325
37.483
37.604
37.666
37.657
37.554
37.376
37.137
36.883
36.684
36.536
36.436
36.362
36.288
36.217
36.162
36.132
36.125
36.118
36.075
36.022
35.985
35.938
35.906
35.896
35.864
35.818
35.921
36.373
37.204
38.232
39.149
39.686
39.738
39.411
38.91
38.377
37.924
37.604
37.412
37.26
37.064
36.876
36.767
36.787
36.94
37.187
37.45
37.663
37.786
37.783
37.651
37.455
37.245
37.05
36.879
36.698
36.525
36.371
36.239
36.139
36.074
36.059
36.093
36.139
36.159
36.137
36.093
36.049
35.995
35.937
35.887
35.898
36.061
36.497
37.263
38.245
39.11
39.563
39.521
39.117
38.578
38.073
37.681
37.411
37.187
36.976
36.766
36.58
36.482
36.517
36.678
36.948
37.251
37.49
37.575
37.512
37.344
37.154
36.979
36.807
36.618
36.401
36.193
36.056
35.986
35.917
35.829
35.776
35.79
35.829
35.84
35.805
35.761
35.722
35.696
35.756
35.981
36.483
37.294
38.209
38.932
39.252
39.136
38.711
38.183
37.714
37.348
37.049
36.8
36.593
36.386
36.194
36.078
36.089
36.25
36.526
36.831
37.089
37.237
37.246
37.133
36.928
36.674
36.411
36.17
35.982
35.867
35.793
35.724
35.649
35.581
35.547
35.569
35.628
35.662
35.65
35.605
35.575
35.626
35.888
36.49
37.392
38.361
39.128
39.499
39.416
38.996
38.455
37.96
37.588
37.329
37.177
37.103
37.036
36.96
36.915
36.936
37.042
37.209
37.359
37.451
37.501
37.492
37.384
37.191
36.946
36.718
36.557
36.45
36.371
36.284
36.196
36.131
36.093
36.075
36.072
36.048
35.999
35.943
35.918
35.917
35.922
35.902
35.867
35.81
35.772
35.827
36.181
37.003
38.2
39.415
40.237
40.454
40.168
39.608
38.988
38.452
38.063
37.843
37.756
37.718
37.672
37.601
37.509
37.437
37.421
37.468
37.567
37.67
37.732
37.723
37.642
37.48
37.242
36.974
36.747
36.574
36.434
36.325
36.202
36.076
35.978
35.918
35.877
35.852
35.818
35.772
35.728
35.709
35.714
35.695
35.634
35.547
35.474
35.431
35.389
35.327
35.273
35.242
35.203
35.14
35.079
35.16
35.639
36.646
37.989
39.212
39.867
39.845
39.355
38.692
38.053
37.529
37.17
36.955
36.839
36.774
36.706
36.636
36.578
36.577
36.633
36.709
36.808
36.906
36.952
36.916
36.795
36.626
36.433
36.225
36.031
35.853
35.679
35.535
35.436
35.382
35.343
35.331
35.324
35.279
35.189
35.107
35.043
34.993
34.987
35.008
34.989
34.933
34.886
34.86
34.826
34.773
34.712
34.644
34.586
34.551
34.532
34.486
34.397
34.337
34.425
34.821
35.654
36.85
38.022
38.733
38.82
38.424
37.799
37.152
36.61
36.191
35.908
35.75
35.665
35.626
35.585
35.542
35.531
35.605
35.759
35.949
36.113
36.201
36.208
36.155
36.05
35.866
35.649
35.454
35.26
35.065
34.915
34.822
34.767
34.729
34.712
34.719
34.732
34.74
34.761
34.792
34.798
34.753
34.679
34.63
34.631
34.636
34.604
34.551
34.488
34.452
34.439
34.448
34.453
34.421
34.373
34.332
34.29
34.34
34.68
35.452
36.543
37.596
38.253
38.405
38.137
37.63
37.04
36.483
36.045
35.77
35.605
35.495
35.385
35.258
35.2
35.285
35.473
35.681
35.86
35.965
35.981
35.943
35.889
35.821
35.707
35.541
35.343
35.147
34.984
34.875
34.813
34.778
34.768
34.778
34.797
34.809
34.803
34.796
34.788
34.761
34.718
34.696
34.717
34.762
34.786
34.768
34.747
34.737
34.742
34.725
34.696
34.684
34.65
34.586
34.527
34.511
34.644
35.124
36.015
37.129
38.102
38.634
38.645
38.242
37.639
37.037
36.539
36.178
35.942
35.796
35.686
35.6
35.548
35.534
35.584
35.752
36.022
36.302
36.514
36.592
36.539
36.406
36.247
36.079
35.895
35.717
35.541
35.411
35.357
35.364
35.39
35.385
35.351
35.324
35.311
35.33
35.352
35.349
35.334
35.343
35.347
35.341
35.352
35.366
35.382
35.37
35.333
35.284
35.225
35.189
35.182
35.175
35.162
35.137
35.155
35.377
35.969
36.911
37.939
38.666
38.87
38.618
38.108
37.549
37.042
36.618
36.309
36.112
35.993
35.905
35.862
35.892
36.013
36.229
36.511
36.773
36.949
37.047
37.05
36.956
36.794
36.586
36.373
36.192
36.051
35.914
35.78
35.692
35.682
35.714
35.739
35.702
35.634
35.596
35.603
35.632
35.644
35.623
35.588
35.572
35.601
35.661
35.725
35.749
35.723
35.659
35.591
35.587
35.637
35.654
35.604
35.536
35.533
35.658
36.019
36.771
37.762
38.622
39.083
39.048
38.639
38.069
37.503
36.992
36.579
36.289
36.109
35.979
35.868
35.829
35.918
36.125
36.402
36.691
36.973
37.189
37.253
37.157
36.952
36.703
36.466
36.256
36.109
36.003
35.913
35.84
35.791
35.802
35.866
35.931
35.939
35.911
35.892
35.892
35.882
35.853
35.824
35.808
35.798
35.769
35.758
35.76
35.734
35.695
35.641
35.584
35.553
35.559
35.582
35.581
35.527
35.503
35.645
36.082
36.859
37.824
38.672
39.112
39.063
38.658
38.078
37.511
37.052
36.731
36.508
36.334
36.189
36.105
36.115
36.233
36.455
36.744
37.04
37.266
37.377
37.391
37.304
37.142
36.943
36.723
36.509
36.311
36.151
36.047
36.001
36.008
36.028
36.047
36.064
36.083
36.089
36.081
36.095
36.127
36.129
36.097
36.067
36.07
36.079
36.054
36.002
35.921
35.832
35.784
35.759
35.744
35.733
35.722
35.696
35.679
35.731
35.999
36.582
37.463
38.417
39.108
39.336
39.123
38.641
38.063
37.515
37.099
36.833
36.719
36.691
36.641
36.587
36.625
36.781
37.029
37.305
37.526
37.656
37.665
37.585
37.467
37.31
37.106
36.897
36.722
36.621
36.569
36.514
36.445
36.405
36.412
36.44
36.477
36.507
36.512
36.503
36.472
36.429
36.39
36.39
36.415
36.411
36.375
36.312
36.228
36.164
36.156
36.176
36.208
36.204
36.162
36.113
36.062
36.027
36.065
36.346
37.022
37.991
38.929
39.532
39.661
39.392
38.94
38.468
38.03
37.659
37.409
37.283
37.283
37.353
37.371
37.335
37.338
37.478
37.722
37.938
38.07
38.098
38.028
37.891
37.734
37.575
37.454
37.358
37.246
37.127
37.03
36.935
36.863
36.855
36.904
36.953
36.98
36.986
36.959
36.917
36.886
36.863
36.865
36.877
36.847
36.792
36.75
36.708
36.637
36.554
36.493
36.478
36.475
36.45
36.403
36.329
36.253
36.255
36.447
36.966
37.838
38.877
39.741
40.167
40.121
39.74
39.218
38.72
38.356
38.131
38.021
37.97
37.931
37.898
37.9
37.977
38.119
38.301
38.455
38.55
38.592
38.552
38.436
38.269
38.094
37.944
37.817
37.691
37.578
37.502
37.454
37.413
37.387
37.369
37.349
37.321
37.284
37.244
37.219
37.186
37.157
37.147
37.103
37.015
36.933
36.861
36.801
36.758
36.721
36.675
36.641
36.621
36.579
36.514
36.452
36.397
36.346
36.33
36.414
36.79
37.585
38.644
39.658
40.321
40.464
40.178
39.662
39.136
38.756
38.549
38.432
38.365
38.324
38.322
38.349
38.381
38.41
38.479
38.602
38.746
38.834
38.84
38.753
38.596
38.431
38.272
38.112
37.953
37.818
37.716
37.633
37.585
37.582
37.586
37.535
37.437
37.337
37.281
37.268
37.26
37.22
37.131
37.023
36.92
36.845
36.813
36.822
36.816
36.765
36.676
36.603
36.567
36.537
36.48
36.442
36.434
36.415
36.365
36.287
36.265
36.505
37.143
38.11
39.164
39.97
40.265
40.077
39.625
39.123
38.688
38.343
38.136
38.04
38.019
38.026
37.999
37.973
37.982
38.048
38.165
38.274
38.346
38.372
38.362
38.306
38.154
37.948
37.768
37.626
37.497
37.365
37.236
37.124
37.04
37.016
37.054
37.057
36.992
36.924
36.879
36.86
36.832
36.777
36.69
36.582
36.503
36.46
36.437
36.416
36.396
36.383
36.336
36.257
36.156
36.042
35.945
35.905
35.878
35.835
35.773
35.723
35.774
36.139
36.952
38.085
39.184
39.892
40.066
39.784
39.239
38.695
38.271
37.943
37.725
37.648
37.693
37.757
37.774
37.781
37.846
37.979
38.127
38.231
38.239
38.172
38.034
37.856
37.678
37.541
37.433
37.294
37.161
37.073
37.0
36.919
36.87
36.867
36.854
36.818
36.779
36.744
36.693
36.651
36.617
36.602
36.559
36.445
36.315
36.235
36.202
36.188
36.149
36.094
36.085
36.11
36.097
36.016
35.959
35.944
35.911
35.849
35.781
35.743
35.868
36.339
37.238
38.378
39.399
39.984
40.047
39.691
39.127
38.579
38.153
37.888
37.769
37.697
37.634
37.596
37.576
37.586
37.643
37.753
37.882
37.979
38.051
38.05
37.938
37.786
37.645
37.484
37.294
37.105
36.953
36.853
36.79
36.708
36.627
36.585
36.577
36.549
36.497
36.418
36.349
36.322
36.335
36.343
36.293
36.181
36.063
35.991
35.945
35.892
35.824
35.741
35.636
35.536
35.48
35.448
35.43
35.423
35.399
35.345
35.254
35.211
35.342
35.81
36.719
37.895
38.96
39.559
39.568
39.16
38.587
38.033
37.626
37.344
37.14
37.033
37.007
36.998
36.967
36.946
36.991
37.125
37.31
37.485
37.584
37.576
37.466
37.293
37.124
36.969
36.814
36.629
36.425
36.244
36.133
36.102
36.11
36.094
36.058
36.025
35.974
35.943
35.965
35.997
35.968
35.876
35.773
35.689
35.635
35.596
35.543
35.485
35.446
35.408
35.362
35.32
35.276
35.222
35.163
35.095
35.034
34.979
34.926
34.889
34.954
35.318
36.129
37.253
38.336
39.054
39.251
38.992
38.489
37.945
37.473
37.116
36.907
36.809
36.761
36.728
36.711
36.735
36.79
36.875
37.018
37.185
37.318
37.38
37.341
37.204
37.017
36.824
36.625
36.435
36.308
36.255
36.228
36.18
36.113
36.03
35.955
35.913
35.898
35.899
35.882
35.858
35.83
35.811
35.773
35.68
35.55
35.438
35.409
35.433
35.423
35.373
35.288
35.183
35.1
35.064
35.072
35.089
35.067
35.032
34.972
34.915
34.93
35.14
35.715
36.674
37.81
38.757
39.226
39.176
38.78
38.27
37.785
37.363
37.039
36.839
36.736
36.684
36.66
36.673
36.73
36.876
37.115
37.354
37.468
37.45
37.364
37.258
37.14
37.026
36.894
36.712
36.5
36.316
36.192
36.11
36.039
35.977
35.922
35.891
35.906
35.945
35.964
35.955
35.933
35.892
35.821
35.74
35.66
35.576
35.505
35.481
35.481
35.487
35.483
35.434
35.381
35.343
35.278
35.176
35.088
35.042
35.034
35.019
35.03
35.231
35.801
36.784
37.964
38.969
39.454
39.352
38.881
38.327
37.857
37.5
37.25
37.071
36.93
36.848
36.833
36.868
36.986
37.168
37.344
37.487
37.581
37.622
37.598
37.501
37.302
37.073
36.893
36.75
36.615
36.471
36.334
36.204
36.127
36.098
36.072
36.055
36.045
36.043
36.047
36.041
35.991
35.915
35.835
35.786
35.736
35.68
35.64
35.602
35.566
35.543
35.508
35.46
35.42
35.381
35.33
35.253
35.187
35.139
35.083
34.995
34.931
35.04
35.54
36.496
37.697
38.79
39.457
39.584
39.269
38.732
38.178
37.69
37.336
37.153
37.107
37.098
37.044
36.989
37.014
37.154
37.36
37.578
37.741
37.841
37.862
37.765
37.545
37.287
37.097
36.974
36.856
36.736
36.608
36.459
36.342
36.293
36.296
36.285
36.247
36.227
36.222
36.193
36.155
36.119
36.079
36.026
35.957
35.883
35.864
35.892
35.908
35.85
35.721
35.594
35.541
35.53
35.499
35.453
35.381
35.269
35.177
35.12
35.185
35.558
36.362
37.511
38.682
39.497
39.751
39.516
39.062
38.596
38.159
37.775
37.496
37.352
37.304
37.274
37.228
37.216
37.284
37.464
37.724
37.958
38.094
38.119
38.044
37.861
37.618
37.364
37.141
36.959
36.816
36.715
36.638
36.57
36.505
36.453
36.424
36.429
36.442
36.438
36.409
36.379
36.354
36.313
36.252
36.181
36.12
36.053
35.98
35.929
35.894
35.843
35.787
35.726
35.654
35.578
35.506
35.429
35.341
35.274
35.279
35.521
36.181
37.269
38.488
39.451
39.916
39.864
39.44
38.895
38.411
38.04
37.789
37.646
37.586
37.563
37.572
37.61
37.678
37.802
37.956
38.112
38.244
38.298
38.251
38.103
37.891
37.665
37.472
37.307
37.159
37.008
36.902
36.851
36.826
36.779
36.703
36.627
36.58
36.535
36.504
36.521
36.554
36.539
36.456
36.366
36.299
36.229
36.151
36.126
36.128
36.084
35.966
35.834
35.746
35.707
35.716
35.726
35.689
35.645
35.64
35.821
36.415
37.459
38.696
39.738
40.261
40.181
39.713
39.137
38.597
38.187
37.967
37.918
37.954
37.97
37.938
37.928
37.967
38.071
38.224
38.356
38.41
38.373
38.246
38.092
37.961
37.836
37.694
37.535
37.337
37.13
36.949
36.843
36.809
36.789
36.741
36.69
36.64
36.576
36.503
36.454
36.429
36.408
36.377
36.33
36.264
36.193
36.09
35.969
35.883
35.82
35.777
35.713
35.619
35.552
35.497
35.429
35.368
35.331
35.375
35.664
36.373
37.43
38.561
39.409
39.739
39.592
39.158
38.653
38.206
37.877
37.676
37.631
37.665
37.664
37.616
37.586
37.626
37.73
37.858
37.971
38.011
37.957
37.812
37.611
37.397
37.224
37.102
37.008
36.921
36.796
36.66
36.549
36.507
36.521
36.521
36.461
36.357
36.291
36.275
36.255
36.224
36.206
36.182
36.126
36.027
35.914
35.793
35.709
35.662
35.607
35.541
35.473
35.412
35.363
35.327
35.292
35.232
35.177
35.201
35.427
36.008
36.972
38.124
39.142
39.712
39.743
39.344
38.767
38.243
37.858
37.661
37.626
37.657
37.664
37.628
37.594
37.635
37.757
37.923
38.028
38.042
38.018
37.943
37.825
37.671
37.491
37.295
37.093
36.911
36.816
36.799
36.807
36.786
36.706
36.589
36.517
36.491
36.477
36.492
36.487
36.442
36.379
36.307
36.208
36.07
35.962
35.906
35.89
35.878
35.842
35.777
35.687
35.62
35.572
35.545
35.518
35.472
35.37
35.243
35.196
35.357
35.88
36.809
37.935
38.915
39.463
39.48
39.092
38.551
38.064
37.736
37.585
37.576
37.657
37.727
37.707
37.656
37.65
37.742
37.88
37.997
38.053
38.033
37.942
37.804
37.648
37.474
37.287
37.111
36.964
36.851
36.774
36.713
36.647
36.589
36.554
36.509
36.463
36.447
36.436
36.383
36.311
36.25
36.213
36.158
36.052
35.96
35.913
35.874
35.812
35.715
35.624
35.571
35.517
35.446
35.375
35.329
35.311
35.268
35.204
35.162
35.201
35.483
36.139
37.094
38.125
38.914
39.204
38.999
38.485
37.925
37.507
37.253
37.15
37.154
37.204
37.223
37.189
37.139
37.156
37.264
37.407
37.489
37.475
37.392
37.295
37.165
36.993
36.796
36.6
36.437
36.322
36.26
36.229
36.202
36.143
36.059
36.01
36.028
36.058
36.035
35.945
35.851
35.785
35.764
35.739
35.682
35.589
35.511
35.455
35.409
35.352
35.278
35.202
35.148
35.105
35.064
35.04
35.013
34.977
34.942
34.899
34.838
34.83
35.008
35.487
36.335
37.408
38.351
38.872
38.874
38.482
37.951
37.449
37.067
36.841
36.757
36.769
36.808
36.792
36.724
36.695
36.763
36.894
37.039
37.137
37.143
37.087
36.976
36.824
36.672
36.514
36.352
36.182
36.014
35.893
35.853
35.877
35.899
35.881
35.818
35.732
35.653
35.601
35.576
35.556
35.56
35.542
35.479
35.402
35.334
35.266
35.192
35.15
35.147
35.14
35.111
35.054
34.978
34.906
34.878
34.873
34.856
34.834
34.804
34.776
34.806
35.052
35.684
36.674
37.761
38.594
38.925
38.756
38.305
37.799
37.352
37.054
36.925
36.896
36.866
36.811
36.746
36.722
36.778
36.891
37.027
37.165
37.272
37.297
37.231
37.074
36.857
36.645
36.464
36.309
36.193
36.103
36.034
35.971
35.907
35.857
35.845
35.853
35.852
35.836
35.806
35.77
35.76
35.749
35.7
35.617
35.523
35.421
35.335
35.299
35.297
35.275
35.217
35.152
35.115
35.095
35.078
35.028
34.969
34.925
34.893
34.901
35.035
35.418
36.2
37.279
38.327
38.982
39.083
38.749
38.227
37.691
37.266
37.029
36.945
36.93
36.9
36.843
36.825
36.869
36.965
37.115
37.302
37.482
37.564
37.497
37.335
37.161
36.985
36.811
36.669
36.549
36.428
36.306
36.198
36.115
36.057
36.034
36.03
36.028
36.022
35.997
35.949
35.901
35.874
35.847
35.814
35.776
35.736
35.673
35.579
35.475
35.417
35.382
35.348
35.314
35.281
35.238
35.194
35.135
35.069
35.025
35.049
35.255
35.817
36.747
37.85
38.8
39.314
39.311
38.934
38.404
37.917
37.564
37.332
37.203
37.148
37.136
37.147
37.158
37.211
37.322
37.467
37.619
37.727
37.754
37.702
37.572
37.4
37.185
36.95
36.747
36.599
36.504
36.436
36.37
36.319
36.276
36.22
36.171
36.167
36.198
36.209
36.161
36.09
36.035
35.985
35.93
35.897
35.868
35.802
35.714
35.646
35.571
35.498
35.459
35.461
35.49
35.472
35.403
35.289
35.156
35.13
35.383
36.047
37.095
38.282
39.222
39.651
39.581
39.178
38.656
38.172
37.814
37.611
37.532
37.512
37.476
37.42
37.404
37.454
37.565
37.707
37.854
37.974
38.014
37.944
37.794
37.599
37.407
37.232
37.057
36.87
36.69
36.547
36.457
36.411
36.399
36.418
36.44
36.437
36.418
36.385
36.339
36.3
36.242
36.179
36.132
36.062
35.971
35.884
35.785
35.707
35.649
35.611
35.59
35.575
35.561
35.524
35.447
35.34
35.235
35.234
35.52
36.199
37.227
38.354
39.252
39.637
39.468
38.963
38.393
37.93
37.614
37.431
37.382
37.382
37.375
37.356
37.358
37.416
37.538
37.695
37.842
37.94
37.919
37.774
37.562
37.335
37.147
36.971
36.8
36.666
36.566
36.471
36.358
36.247
36.158
36.105
36.103
36.155
36.221
36.242
36.179
36.104
36.05
35.98
35.893
35.806
35.73
35.638
35.562
35.528
35.504
35.457
35.381
35.275
35.173
35.11
35.108
35.123
35.105
35.084
35.237
35.775
36.731
37.862
38.771
39.165
39.082
38.693
38.17
37.684
37.346
37.194
37.16
37.155
37.151
37.091
37.006
36.977
37.04
37.174
37.291
37.368
37.407
37.363
37.206
36.97
36.73
36.55
36.457
36.408
36.366
36.283
36.205
36.146
36.079
35.999
35.946
35.944
35.967
36.006
36.007
35.984
35.972
35.961
35.918
35.831
35.729
35.623
35.497
35.365
35.252
35.195
35.193
35.193
35.176
35.173
35.163
35.117
35.028
34.934
34.939
35.204
35.873
36.885
37.949
38.716
38.994
38.812
38.343
37.8
37.357
37.081
36.955
36.93
36.911
36.839
36.775
36.786
36.894
37.071
37.223
37.277
37.242
37.162
37.04
36.87
36.692
36.515
36.355
36.213
36.113
36.053
36.0
35.957
35.928
35.896
35.876
35.893
35.898
35.853
35.77
35.692
35.616
35.547
35.479
35.409
35.359
35.317
35.257
35.196
35.159
35.117
35.055
34.971
34.886
34.832
34.803
34.773
34.741
34.711
34.696
34.721
34.926
35.488
36.415
37.464
38.341
38.788
38.709
38.292
37.758
37.231
36.803
36.523
36.414
36.418
36.453
36.49
36.527
36.592
36.671
36.747
36.842
36.926
36.961
36.909
36.777
36.615
36.417
36.211
36.041
35.906
35.813
35.744
35.689
35.659
35.656
35.683
35.719
35.714
35.658
35.598
35.562
35.574
35.588
35.553
35.47
35.372
35.291
35.254
35.223
35.182
35.125
35.039
34.949
34.875
34.854
34.859
34.867
34.864
34.85
34.818
34.787
34.85
35.162
35.897
36.955
37.941
38.522
38.623
38.319
37.8
37.265
36.831
36.569
36.456
36.427
36.426
36.409
36.383
36.415
36.521
36.678
36.815
36.851
36.802
36.721
36.623
36.498
36.359
36.185
36.021
35.903
35.826
35.775
35.718
35.659
35.609
35.604
35.626
35.646
35.65
35.609
35.539
35.466
35.405
35.372
35.38
35.392
35.345
35.271
35.244
35.225
35.178
35.108
35.034
34.968
34.928
34.902
34.876
34.858
34.833
34.778
34.746
34.791
35.01
35.565
36.483
37.548
38.44
38.898
38.847
38.4
37.792
37.254
36.884
36.672
36.573
36.569
36.633
36.694
36.71
36.71
36.766
36.899
37.062
37.215
37.319
37.302
37.142
36.89
36.623
36.405
36.267
36.177
36.104
36.016
35.944
35.926
35.919
35.905
35.888
35.884
35.886
35.867
35.858
35.84
35.803
35.747
35.672
35.604
35.572
35.564
35.518
35.444
35.377
35.304
35.234
35.157
35.113
35.139
35.167
35.125
35.037
34.959
34.949
35.087
35.525
36.37
37.489
38.54
39.179
39.273
38.92
38.386
37.888
37.472
37.145
36.952
36.866
36.836
36.796
36.756
36.775
36.881
37.049
37.252
37.422
37.509
37.505
37.415
37.238
37.015
36.788
36.59
36.42
36.294
36.226
36.193
36.178
36.163
36.143
36.115
36.075
36.06
36.084
36.096
36.08
36.063
36.029
35.984
35.948
35.899
35.808
35.71
35.655
35.624
35.604
35.59
35.544
35.469
35.392
35.33
35.294
35.274
35.234
35.17
35.135
35.325
35.922
36.953
38.157
39.118
39.559
39.474
39.033
38.454
37.903
37.478
37.219
37.084
37.024
36.978
36.961
37.012
37.122
37.26
37.469
37.697
37.824
37.824
37.739
37.609
37.432
37.213
37.013
36.833
36.651
36.479
36.377
36.337
36.294
36.246
36.215
36.204
36.2
36.203
36.214
36.215
36.218
36.248
36.243
36.157
36.026
35.927
35.884
35.879
35.881
35.851
35.791
35.696
35.612
35.534
35.462
35.414
35.369
35.342
35.349
35.469
35.906
36.805
37.985
39.068
39.74
39.921
39.701
39.222
38.692
38.256
37.939
37.754
37.665
37.622
37.582
37.535
37.529
37.635
37.835
38.066
38.225
38.279
38.239
38.133
37.97
37.724
37.44
37.195
37.019
36.909
36.832
36.757
36.692
36.639
36.587
36.553
36.546
36.564
36.574
36.57
36.569
36.561
36.518
36.444
36.385
36.326
36.245
36.169
36.12
36.076
35.984
35.876
35.817
35.793
35.747
35.682
35.617
35.562
35.521
35.552
35.877
36.678
37.836
39.007
39.838
40.146
39.955
39.47
38.935
38.481
38.117
37.881
37.764
37.704
37.682
37.676
37.685
37.751
37.902
38.111
38.256
38.297
38.263
38.169
38.04
37.878
37.67
37.452
37.247
37.053
36.896
36.781
36.733
36.735
36.718
36.667
36.618
36.598
36.585
36.539
36.479
36.425
36.355
36.261
36.176
36.113
36.071
36.03
35.986
35.914
35.817
35.708
35.596
35.508
35.464
35.45
35.421
35.37
35.36
35.594
36.273
37.347
38.522
39.437
39.88
39.88
39.587
39.165
38.755
38.399
38.092
37.894
37.832
37.846
37.871
37.908
37.986
38.098
38.221
38.338
38.419
38.439
38.382
38.236
38.021
37.79
37.564
37.366
37.192
37.046
36.926
36.856
36.836
36.811
36.755
36.678
36.612
36.578
36.562
36.533
36.486
36.443
36.409
36.353
36.248
36.145
36.075
36.008
35.926
35.818
35.705
35.605
35.532
35.483
35.424
35.372
35.365
35.443
35.738
36.416
37.467
38.625
39.522
39.943
39.867
39.47
38.954
38.454
38.085
37.916
37.887
37.897
37.904
37.895
37.891
37.96
38.083
38.227
38.35
38.421
38.414
38.276
38.06
37.841
37.599
37.377
37.218
37.109
37.023
36.939
36.854
36.789
36.772
36.771
36.756
36.713
36.647
36.568
36.48
36.41
36.376
36.346
36.249
36.104
35.957
35.85
35.786
35.732
35.676
35.596
35.512
35.459
35.427
35.385
35.326
35.28
35.348
35.713
36.504
37.62
38.743
39.548
39.833
39.633
39.152
38.617
38.178
37.913
37.819
37.824
37.877
37.895
37.875
37.867
37.898
37.961
38.039
38.118
38.145
38.07
37.949
37.816
37.645
37.442
37.243
37.084
36.965
36.88
36.801
36.714
36.65
36.605
36.566
36.526
36.497
36.474
36.429
36.373
36.331
36.269
36.15
35.999
35.872
35.801
35.769
35.723
35.633
35.523
35.418
35.334
35.253
35.17
35.057
34.964
35.029
35.395
36.128
37.088
38.006
38.6
38.717
38.449
37.971
37.452
37.038
36.8
36.718
36.705
36.695
36.671
36.665
36.721
36.865
37.036
37.127
37.084
36.9
36.615
36.316
36.088
35.962
35.897
35.872
35.866
35.853
35.819
35.79
35.805
35.859
35.927
35.975
35.962
35.929
35.924
35.925
35.882
35.832
35.782
35.708
35.632
35.552
35.45
35.328
35.207
35.131
35.101
35.078
35.029
34.973
34.895
34.778
34.64
34.567
34.666
35.071
35.823
36.831
37.865
38.601
38.836
38.62
38.145
37.605
37.162
36.925
36.914
37.05
37.168
37.156
37.067
37.011
37.025
37.089
37.161
37.192
37.122
36.966
36.806
36.675
36.549
36.398
36.227
36.062
35.902
35.757
35.668
35.639
35.649
35.661
35.646
35.639
35.652
35.658
35.638
35.602
35.55
35.526
35.512
35.444
35.292
35.14
35.032
34.954
34.911
34.94
35.006
35.02
34.948
34.832
34.74
34.673
34.608
34.555
34.599
34.886
35.52
36.429
37.38
38.105
38.392
38.188
37.686
37.149
36.773
36.6
36.567
36.583
36.601
36.614
36.625
36.595
36.54
36.525
36.592
36.679
36.686
36.606
36.504
36.411
36.303
36.146
35.951
35.78
35.689
35.64
35.582
35.51
35.438
35.398
35.387
35.374
35.337
35.289
35.218
35.13
35.049
34.973
34.9
34.841
34.824
34.828
34.804
34.709
34.593
34.541
34.533
34.527
34.524
34.506
34.469
34.436
34.408
34.37
34.377
34.58
35.114
35.963
36.877
37.543
37.761
