33.258
34.451
36.476
38.864
40.95
42.233
42.601
42.239
41.427
40.355
39.148
37.91
36.725
35.624
34.655
33.953
33.704
34.051
34.939
36.073
37.133
37.872
38.169
38.07
37.677
37.12
36.49
35.837
35.176
34.543
33.973
33.498
33.122
32.835
32.645
32.55
32.529
32.572
32.633
32.679
32.731
32.813
33.004
33.63
35.067
37.316
39.855
41.99
43.279
43.662
43.33
42.515
41.391
40.111
38.799
37.545
36.376
35.337
34.56
34.242
34.516
35.326
36.446
37.546
38.319
38.635
38.571
38.244
37.738
37.114
36.413
35.688
34.997
34.381
33.859
33.428
33.097
32.875
32.752
32.719
32.751
32.839
32.945
33.053
33.149
33.205
33.224
33.329
33.921
35.421
37.797
40.512
42.844
44.292
44.736
44.345
43.397
42.165
40.839
39.551
38.368
37.312
36.411
35.782
35.588
35.9
36.645
37.611
38.531
39.186
39.451
39.34
38.934
38.354
37.704
36.989
36.23
35.509
34.871
34.333
33.909
33.603
33.426
33.35
33.348
33.391
33.453
33.518
33.541
33.526
33.545
33.761
34.498
36.026
38.237
40.621
42.566
43.691
43.94
43.461
42.487
41.26
39.984
38.776
37.694
36.736
35.928
35.397
35.317
35.74
36.536
37.435
38.204
38.674
38.799
38.621
38.211
37.627
36.949
36.249
35.574
34.951
34.404
33.951
33.595
33.35
33.211
33.172
33.203
33.258
33.304
33.338
33.352
33.331
33.335
33.573
34.388
35.986
38.163
40.36
42.0
42.792
42.762
42.129
41.12
39.947
38.762
37.673
36.718
35.906
35.3
35.044
35.274
35.945
36.831
37.696
38.33
38.605
38.536
38.194
37.664
37.038
36.406
35.827
35.288
34.779
34.341
34.033
33.847
33.747
33.679
33.643
33.662
33.703
33.725
33.717
33.736
33.844
34.209
35.154
36.782
38.789
40.636
41.873
42.31
42.034
41.305
40.362
39.326
38.266
37.26
36.367
35.66
35.253
35.274
35.758
36.571
37.456
38.147
38.506
38.568
38.373
37.98
37.462
36.888
36.329
35.805
35.328
34.93
34.621
34.418
34.306
34.258
34.249
34.258
34.267
34.266
34.25
34.236
34.354
34.862
36.023
37.822
39.891
41.699
42.842
43.207
42.897
42.128
41.152
40.142
39.194
38.355
37.639
37.079
36.762
36.787
37.171
37.803
38.46
38.946
39.195
39.174
38.898
38.447
37.902
37.314
36.726
36.183
35.717
35.331
35.036
34.843
34.729
34.658
34.609
34.617
34.664
34.691
34.669
34.599
34.492
34.381
34.345
34.575
35.38
36.944
39.059
41.173
42.771
43.585
43.611
43.029
42.104
41.104
40.217
39.512
38.964
38.504
38.112
37.888
37.94
38.265
38.736
39.193
39.495
39.557
39.375
39.003
38.489
37.899
37.285
36.73
36.263
35.867
35.535
35.266
35.06
34.919
34.824
34.785
34.799
34.82
34.807
34.772
34.729
34.688
34.628
34.5
34.314
34.083
33.833
33.588
33.404
33.442
34.065
35.571
37.853
40.36
42.435
43.655
43.955
43.546
42.711
41.701
40.703
39.866
39.249
38.769
38.408
38.204
38.223
38.465
38.836
39.213
39.474
39.553
39.404
39.068
38.586
38.019
37.431
36.869
36.353
35.906
35.549
35.271
35.063
34.912
34.807
34.72
34.647
34.604
34.594
34.618
34.614
34.541
34.421
34.275
34.112
33.946
33.796
33.653
33.493
33.313
33.127
32.926
32.737
32.674
33.025
34.163
36.204
38.78
41.227
42.959
43.717
43.591
42.876
41.894
40.886
39.992
39.241
38.608
38.092
37.761
37.669
37.852
38.24
38.71
39.144
39.407
39.395
39.105
38.612
38.034
37.44
36.878
36.362
35.877
35.438
35.067
34.788
34.609
34.495
34.434
34.404
34.363
34.309
34.257
34.208
34.154
34.09
34.008
33.895
33.751
33.579
33.409
33.257
33.092
32.909
32.725
32.554
32.414
32.302
32.2
32.173
32.396
33.208
34.911
37.366
40.003
42.154
43.418
43.729
43.274
42.355
41.262
40.182
39.229
38.432
37.772
37.264
37.013
37.102
37.486
38.041
38.615
39.05
39.257
39.203
38.902
38.407
37.786
37.127
36.5
35.936
35.434
35.016
34.705
34.481
34.307
34.178
34.128
34.148
34.207
34.257
34.262
34.219
34.14
34.053
33.954
33.837
33.716
33.563
33.354
33.109
32.841
32.578
32.357
32.238
32.445
33.34
35.11
37.474
39.815
41.586
42.507
42.592
42.057
41.139
40.03
38.905
37.875
36.969
36.202
35.65
35.431
35.618
36.157
36.867
37.545
38.022
38.23
38.155
37.833
37.322
36.721
36.068
35.424
34.862
34.404
34.025
33.699
33.431
33.246
33.169
33.196
33.266
33.354
33.418
33.439
33.436
33.415
33.378
33.297
33.154
32.967
32.753
32.557
32.431
32.604
33.49
35.315
37.76
40.167
41.95
42.853
42.914
42.342
41.394
40.281
39.162
38.151
37.31
36.606
36.034
35.703
35.746
36.185
36.868
37.573
38.122
38.372
38.313
37.992
37.472
36.842
36.183
35.56
34.981
34.466
34.047
33.72
33.457
33.258
33.134
33.086
33.105
33.151
33.197
33.238
33.277
33.298
33.275
33.215
33.125
32.996
32.804
32.561
32.32
32.185
32.469
33.593
35.719
38.458
41.076
42.953
43.882
43.936
43.338
42.386
41.284
40.181
39.184
38.357
37.685
37.156
36.849
36.841
37.108
37.568
38.095
38.551
38.811
38.801
38.524
38.032
37.403
36.715
36.046
35.431
34.888
34.421
34.025
33.714
33.466
33.281
33.16
33.115
33.132
33.178
33.21
33.216
33.211
33.204
33.185
33.111
32.962
32.753
32.512
32.26
32.023
31.903
32.196
33.328
35.436
38.117
40.681
42.539
43.425
43.41
42.757
41.773
40.657
39.554
38.564
37.737
37.057
36.541
36.258
36.279
36.587
37.103
37.661
38.111
38.345
38.324
38.059
37.609
37.028
36.38
35.727
35.111
34.556
34.08
33.717
33.469
33.293
33.16
33.088
33.064
33.032
32.994
32.997
33.031
33.037
32.988
32.905
32.808
32.715
32.636
32.547
32.391
32.157
31.896
31.657
31.495
31.613
32.422
34.203
36.74
39.433
41.634
42.964
43.363
43.003
42.141
41.022
39.837
38.744
37.81
37.014
36.345
35.895
35.776
36.04
36.608
37.306
37.92
38.299
38.404
38.243
37.843
37.309
36.724
36.114
35.489
34.904
34.397
33.956
33.597
33.353
33.191
33.089
33.042
33.038
33.071
33.111
33.147
33.168
33.178
33.169
33.121
33.034
32.894
32.716
32.495
32.246
32.039
32.052
32.639
34.089
36.274
38.67
40.655
41.833
42.166
41.829
41.046
40.004
38.878
37.817
36.863
35.994
35.25
34.79
34.765
35.173
35.875
36.666
37.348
37.77
37.892
37.748
37.401
36.918
36.371
35.794
35.223
34.7
34.234
33.833
33.504
33.267
33.118
33.04
33.027
33.068
33.146
33.231
33.293
33.314
33.274
33.16
33.007
32.977
33.368
34.485
36.321
38.443
40.285
41.473
41.905
41.712
41.065
40.143
39.119
38.112
37.178
36.305
35.515
34.915
34.663
34.866
35.495
36.338
37.109
37.646
37.87
37.784
37.485
37.044
36.499
35.919
35.354
34.833
34.354
33.934
33.625
33.417
33.249
33.118
33.052
33.066
33.139
33.223
33.296
33.341
33.321
33.247
33.151
33.118
33.378
34.294
36.045
38.37
40.702
42.51
43.522
43.727
43.28
42.414
41.34
40.218
39.167
38.234
37.428
36.794
36.415
36.379
36.707
37.307
38.0
38.596
38.948
39.004
38.801
38.4
37.862
37.24
36.593
35.976
35.406
34.889
34.453
34.125
33.925
33.838
33.794
33.744
33.709
33.722
33.792
33.877
33.902
33.854
33.742
33.598
33.469
33.454
33.851
35.024
37.039
39.539
41.915
43.65
44.501
44.518
43.931
42.995
41.915
40.841
39.88
39.06
38.371
37.843
37.577
37.648
38.019
38.533
39.012
39.337
39.442
39.322
39.021
38.574
38.017
37.398
36.756
36.148
35.624
35.184
34.837
34.577
34.36
34.183
34.071
34.03
34.042
34.071
34.09
34.106
34.113
34.101
34.031
33.882
33.673
33.443
33.219
33.084
33.321
34.344
36.305
38.871
41.406
43.327
44.347
44.483
43.928
42.942
41.756
40.58
39.568
38.742
38.057
37.507
37.208
37.241
37.595
38.148
38.72
39.138
39.302
39.22
38.93
38.451
37.832
37.156
36.504
35.919
35.396
34.94
34.56
34.261
34.049
33.923
33.859
33.813
33.794
33.801
33.82
33.841
33.834
33.778
33.676
33.547
33.39
33.193
32.97
32.757
32.652
32.931
34.005
36.03
38.661
41.211
43.069
43.987
44.024
43.42
42.454
41.313
40.128
39.02
38.048
37.253
36.698
36.462
36.585
37.029
37.679
38.342
38.844
39.073
38.997
38.669
38.18
37.602
36.976
36.339
35.72
35.147
34.655
34.261
33.962
33.783
33.692
33.641
33.618
33.62
33.641
33.683
33.734
33.766
33.742
33.66
33.53
33.355
33.154
32.971
32.925
33.335
34.546
36.574
38.981
41.149
42.617
43.229
43.079
42.377
41.353
40.187
39.016
37.91
36.906
36.052
35.465
35.287
35.599
36.296
37.129
37.875
38.361
38.532
38.422
38.066
37.546
36.927
36.275
35.646
35.079
34.583
34.179
33.873
33.645
33.47
33.363
33.33
33.361
33.431
33.5
33.559
33.576
33.523
33.415
33.277
33.213
33.469
34.398
36.169
38.501
40.779
42.463
43.317
43.38
42.84
41.911
40.757
39.514
38.319
37.249
36.339
35.667
35.355
35.493
36.04
36.836
37.66
38.301
38.66
38.703
38.447
37.956
37.334
36.669
36.011
35.399
34.86
34.401
34.005
33.661
33.397
33.235
33.166
33.196
33.274
33.371
33.495
33.593
33.63
33.587
33.471
33.32
33.234
33.481
34.484
36.451
39.089
41.743
43.806
44.95
45.162
44.639
43.659
42.449
41.181
39.989
38.947
38.068
37.354
36.884
36.791
37.122
37.741
38.436
39.044
39.44
39.521
39.273
38.765
38.122
37.43
36.73
36.052
35.432
34.888
34.434
34.07
33.791
33.594
33.483
33.453
33.483
33.555
33.635
33.685
33.668
33.592
33.502
33.402
33.304
33.297
33.68
34.908
37.107
39.849
42.425
44.259
45.129
45.12
44.463
43.412
42.18
40.931
39.77
38.748
37.889
37.244
36.891
36.903
37.266
37.857
38.503
39.025
39.285
39.234
38.92
38.421
37.835
37.204
36.538
35.869
35.219
34.638
34.156
33.768
33.483
33.309
33.216
33.202
33.243
33.32
33.385
33.391
33.342
33.271
33.224
33.382
34.136
35.805
38.246
40.847
42.933
44.123
44.422
44.02
43.132
41.958
40.682
39.457
38.365
37.414
36.596
36.007
35.782
36.003
36.617
37.423
38.164
38.642
38.778
38.593
38.166
37.585
36.951
36.314
35.673
35.007
34.364
33.829
33.449
33.196
33.04
32.957
32.928
32.912
32.879
32.843
32.85
33.022
33.621
34.974
37.096
39.574
41.796
43.276
43.856
43.636
42.854
41.739
40.469
39.197
38.009
36.923
35.971
35.254
34.917
35.07
35.664
36.501
37.317
37.879
38.11
38.04
37.731
37.249
36.645
35.977
35.281
34.611
34.016
33.526
33.126
32.808
32.593
32.464
32.371
32.304
32.262
32.265
32.464
33.165
34.688
36.985
39.553
41.741
43.114
43.567
43.231
42.337
41.141
39.836
38.517
37.234
36.029
34.991
34.269
34.044
34.423
35.285
36.328
37.225
37.797
38.024
37.933
37.611
37.144
36.565
35.926
35.273
34.63
34.045
33.554
33.165
32.85
32.611
32.457
32.374
32.334
32.318
32.423
32.953
34.273
36.408
38.928
41.192
42.71
43.313
43.11
42.339
41.218
39.926
38.575
37.242
35.98
34.85
34.022
33.713
34.044
34.93
36.074
37.128
37.859
38.178
38.113
37.764
37.245
36.645
36.02
35.387
34.775
34.222
33.754
33.388
33.119
32.917
32.754
32.607
32.482
32.426
32.615
33.408
35.086
37.49
40.056
42.172
43.444
43.8
43.424
42.557
41.379
40.036
38.653
37.323
36.066
34.997
34.305
34.191
34.73
35.708
36.781
37.66
38.202
38.375
38.21
37.797
37.241
36.605
35.937
35.275
34.646
34.088
33.632
33.283
33.027
32.845
32.755
32.726
32.712
32.696
32.738
33.058
34.099
36.158
39.004
41.935
44.22
45.476
45.698
45.143
44.12
42.849
41.502
40.192
38.975
37.882
36.967
36.388
36.304
36.719
37.475
38.324
39.036
39.472
39.576
39.357
38.866
38.193
37.433
36.688
35.996
35.354
34.777
34.282
33.88
33.576
33.379
33.267
33.237
33.284
33.359
33.416
33.434
33.436
33.593
34.292
35.931
38.441
41.224
43.554
44.975
45.419
45.045
44.123
42.914
41.593
40.299
39.106
38.06
37.207
36.624
36.434
36.686
37.269
37.993
38.655
39.084
39.191
38.977
38.514
37.888
37.182
36.456
35.747
35.074
34.454
33.932
33.532
33.235
33.042
32.969
33.004
33.093
33.185
33.254
33.247
33.152
33.033
32.978
33.097
33.725
35.249
37.649
40.36
42.665
44.082
44.521
44.181
43.321
42.149
40.855
39.578
38.39
37.323
36.407
35.782
35.608
35.929
36.61
37.42
38.13
38.582
38.696
38.491
38.047
37.461
36.8
36.098
35.379
34.669
34.01
33.464
33.058
32.775
32.57
32.444
32.397
32.419
32.501
32.602
32.681
32.727
32.734
32.69
32.6
32.496
32.506
33.014
34.443
36.801
39.541
41.919
43.443
43.98
43.687
42.831
41.669
40.344
38.962
37.633
36.43
35.421
34.747
34.576
34.973
35.833
36.883
37.793
38.354
38.524
38.356
37.937
37.374
36.75
36.079
35.378
34.675
34.031
33.5
33.119
32.882
32.746
32.689
32.697
32.754
32.838
32.915
32.949
32.942
32.892
32.805
32.732
32.857
33.571
35.178
37.537
40.056
42.043
43.096
43.247
42.742
41.792
40.572
39.226
37.876
36.598
35.435
34.451
33.807
33.727
34.284
35.293
36.409
37.324
37.877
38.036
37.864
37.435
36.84
36.158
35.447
34.764
34.141
33.578
33.077
32.671
32.401
32.271
32.222
32.229
32.274
32.332
32.366
32.369
32.379
32.438
32.77
33.841
35.9
38.604
41.218
43.106
44.009
44.035
43.442
42.455
41.245
39.917
38.557
37.254
36.068
35.067
34.432
34.358
34.909
35.901
37.017
37.946
38.5
38.639
38.406
37.926
37.32
36.671
35.992
35.292
34.615
34.014
33.508
33.111
32.832
32.659
32.55
32.479
32.43
32.384
32.419
32.763
33.768
35.683
38.273
40.883
42.868
43.893
43.994
43.403
42.386
41.141
39.805
38.455
37.147
35.919
34.852
34.113
33.923
34.399
35.395
36.569
37.589
38.231
38.434
38.25
37.792
37.191
36.566
35.912
35.227
34.557
33.95
33.427
33.007
32.707
32.505
32.38
32.311
32.282
32.357
32.812
34.098
36.328
39.046
41.525
43.197
43.895
43.747
43.014
41.907
40.584
39.197
37.83
36.506
35.27
34.248
33.67
33.736
34.455
35.591
36.764
37.682
38.194
38.296
38.066
37.631
37.088
36.48
35.818
35.127
34.459
33.849
33.312
32.882
32.575
32.361
32.216
32.157
32.242
32.708
33.936
36.113
38.864
41.461
43.267
44.03
43.89
43.135
42.023
40.739
39.39
38.031
36.708
35.463
34.458
33.933
34.073
34.856
36.017
37.19
38.044
38.43
38.417
38.138
37.698
37.136
36.477
35.788
35.138
34.547
34.012
33.565
33.22
32.997
32.884
32.801
32.705
32.666
32.798
33.35
34.683
36.862
39.454
41.765
43.269
43.785
43.472
42.637
41.501
40.237
38.968
37.713
36.488
35.39
34.622
34.41
34.815
35.705
36.775
37.717
38.343
38.597
38.494
38.101
37.537
36.908
36.261
35.624
35.031
34.509
34.088
33.768
33.539
33.388
33.299
33.253
33.236
33.239
33.267
33.319
33.546
34.33
35.959
38.229
40.548
42.295
43.137
43.115
42.475
41.492
40.357
39.19
38.04
36.952
35.985
35.259
34.933
35.13
35.814
36.758
37.661
38.285
38.563
38.536
38.249
37.782
37.197
36.553
35.913
35.319
34.802
34.383
34.064
33.815
33.63
33.525
33.497
33.515
33.555
33.603
33.645
33.661
33.624
33.554
33.582
34.007
35.183
37.133
39.394
41.322
42.472
42.754
42.347
41.492
40.411
39.281
38.195
37.197
36.326
35.652
35.296
35.372
35.881
36.674
37.521
38.182
38.523
38.544
38.283
37.826
37.255
36.649
36.069
35.515
34.997
34.551
34.203
33.938
33.739
33.607
33.554
33.585
33.664
33.743
33.796
33.798
33.74
33.665
33.696
34.091
35.143
36.866
38.883
40.652
41.754
42.077
41.759
41.009
40.027
38.973
37.956
37.022
36.198
35.536
35.174
35.236
35.732
36.515
37.332
37.964
38.276
38.272
38.007
37.576
37.057
36.485
35.89
35.332
34.849
34.457
34.148
33.89
33.686
33.561
33.493
33.457
33.461
33.494
33.519
33.508
33.456
33.416
33.609
34.395
35.952
38.026
40.065
41.56
42.273
42.229
41.608
40.654
39.592
38.555
37.598
36.736
35.986
35.439
35.235
35.467
36.082
36.883
37.63
38.153
38.382
38.304
37.981
37.517
36.991
36.419
35.836
35.31
34.919
34.684
34.576
34.561
34.65
34.86
35.156
35.453
35.687
35.844
35.931
35.97
35.994
36.049
36.283
36.963
38.275
40.078
41.917
43.324
44.057
44.107
43.61
42.76
41.734
40.688
39.738
38.956
38.373
38.002
37.913
38.164
38.718
39.411
40.037
40.439
40.542
40.353
39.938
39.376
38.76
38.146
37.592
37.123
36.755
36.48
36.276
36.114
35.986
35.899
35.837
35.782
35.735
35.677
35.611
35.603
35.902
36.785
38.262
40.029
41.616
42.627
42.921
42.587
41.802
40.782
39.725
38.757
37.934
37.269
36.75
36.461
36.51
36.909
37.543
38.227
38.785
39.109
39.137
38.907
38.49
37.951
37.34
36.721
36.151
35.669
35.304
35.038
34.824
34.647
34.513
34.431
34.4
34.415
34.451
34.481
34.518
34.57
34.598
34.562
34.453
34.275
34.048
33.847
33.816
34.279
35.573
37.669
40.102
42.244
43.629
44.083
43.723
42.809
41.65
40.501
39.537
38.832
38.357
38.045
37.898
37.97
38.277
38.746
39.286
39.778
40.074
40.082
39.797
39.313
38.717
38.074
37.45
36.898
36.44
36.052
35.708
35.412
35.186
35.04
34.944
34.87
34.806
34.744
34.695
34.656
34.614
34.535
34.418
34.277
34.117
33.935
33.731
33.517
33.307
33.113
32.919
32.736
32.608
32.721
33.473
35.158
37.555
40.05
41.969
42.907
42.878
42.152
41.074
39.953
38.973
38.224
37.723
37.395
37.161
37.0
36.962
37.068
37.299
37.597
37.848
37.94
37.846
37.579
37.166
36.684
36.181
35.663
35.169
34.739
34.384
34.096
33.854
33.639
33.443
33.273
33.126
33.009
32.925
32.861
32.814
32.791
32.788
32.761
32.659
32.476
32.269
32.087
31.934
31.799
31.693
31.606
31.513
31.418
31.301
31.178
31.091
31.045
31.016
30.985
30.95
30.907
30.879
30.895
31.048
31.658
33.039
35.085
37.303
39.084
40.029
40.116
39.579
38.711
37.779
36.963
36.34
35.933
35.714
35.59
35.486
35.435
35.505
35.724
36.028
36.344
36.573
36.646
36.539
36.281
35.948
35.585
35.193
34.777
34.356
33.97
33.672
33.466
33.342
33.277
33.231
33.194
33.18
33.175
33.19
33.23
33.239
33.151
32.984
32.805
32.664
32.545
32.443
32.369
32.293
32.184
32.054
31.93
31.835
31.774
31.737
31.697
31.636
31.556
31.505
31.56
31.911
32.838
34.423
36.343
38.047
39.12
39.468
39.231
38.628
37.868
37.114
36.462
35.948
35.575
35.345
35.241
35.239
35.331
35.533
35.809
36.101
36.36
36.537
36.587
36.471
36.201
35.822
35.423
35.082
34.799
34.528
34.262
34.036
33.882
33.795
33.753
33.726
33.715
33.727
33.742
33.742
33.738
33.722
33.693
33.662
33.629
33.564
33.443
33.299
33.157
33.043
32.942
32.855
32.783
32.709
32.634
32.559
32.495
32.448
32.417
32.42
32.534
32.968
34.009
35.664
37.52
39.034
39.9
40.078
39.709
39.037
38.245
37.447
36.735
36.181
35.817
35.616
35.497
35.416
35.434
35.63
35.998
36.447
36.864
37.124
37.144
36.97
36.697
36.386
36.054
35.73
35.437
35.183
34.944
34.706
34.491
34.329
34.232
34.181
34.164
34.166
34.176
34.178
34.159
34.127
34.077
34.005
33.935
33.868
33.811
33.765
33.73
33.684
33.613
33.507
33.398
33.314
33.255
33.218
33.245
33.534
34.396
35.906
37.737
39.378
40.439
40.79
40.547
39.935
39.161
38.376
37.68
37.111
36.673
36.336
36.072
35.899
35.893
36.118
36.545
37.06
37.535
37.844
37.935
37.849
37.619
37.298
36.918
36.524
36.149
35.828
35.585
35.395
35.214
35.036
34.869
34.715
34.623
34.611
34.642
34.671
34.703
34.731
34.722
34.68
34.639
34.628
34.639
34.619
34.534
34.402
34.244
34.086
33.962
33.873
33.812
33.834
34.152
35.06
36.596
38.42
40.047
41.103
41.481
41.265
40.648
39.839
38.994
38.218
37.585
37.105
36.737
36.441
36.242
36.231
36.474
36.948
37.519
38.016
38.335
38.434
38.319
38.053
37.718
37.367
37.005
36.636
36.269
35.96
35.75
35.605
35.455
35.274
35.091
34.933
34.825
34.77
34.748
34.742
34.728
34.689
34.628
34.563
34.516
34.479
34.405
34.295
34.189
34.087
33.977
33.866
33.805
33.969
34.671
36.078
37.932
39.727
41.042
41.676
41.643
41.13
40.374
39.553
38.765
38.055
37.444
36.951
36.557
36.263
36.144
36.289
36.705
37.258
37.796
38.22
38.436
38.435
38.242
37.92
37.522
37.09
36.671
36.292
35.936
35.627
35.382
35.178
34.988
34.836
34.722
34.625
34.552
34.514
34.526
34.576
34.635
34.671
34.656
34.573
34.451
34.343
34.271
34.222
34.159
34.072
33.988
33.941
34.013
34.468
35.571
37.277
39.167
40.75
41.718
42.025
41.797
41.191
40.369
39.479
38.661
37.97
37.387
36.886
36.484
36.245
36.27
36.575
37.097
37.71
38.238
38.582
38.704
38.6
38.305
37.879
37.399
36.939
36.528
36.166
35.857
35.587
35.333
35.11
34.953
34.875
34.836
34.799
34.768
34.775
34.778
34.758
34.721
34.652
34.552
34.431
34.315
34.23
34.174
34.172
34.316
34.86
36.038
37.755
39.618
41.184
42.146
42.455
42.218
41.579
40.721
39.777
38.856
38.057
37.423
36.931
36.568
36.378
36.415
36.707
37.214
37.838
38.43
38.813
38.89
38.691
38.321
37.876
37.405
36.927
36.486
36.1
35.743
35.402
35.106
34.886
34.742
34.655
34.62
34.611
34.594
34.569
34.547
34.55
34.586
34.618
34.598
34.507
34.372
34.232
34.137
34.197
34.674
35.823
37.618
39.632
41.344
42.401
42.72
42.435
41.754
40.834
39.841
38.906
38.097
37.426
36.881
36.483
36.274
36.335
36.694
37.294
37.981
38.556
38.905
39.002
38.86
38.528
38.09
37.615
37.135
36.635
36.139
35.697
35.36
35.137
34.977
34.842
34.72
34.615
34.549
34.551
34.63
34.736
34.792
34.773
34.689
34.571
34.475
34.465
34.69
35.423
36.799
38.614
40.418
41.747
42.378
42.335
41.811
41.003
40.069
39.111
38.214
37.446
36.805
36.281
35.956
35.948
36.275
36.855
37.534
38.166
38.61
38.781
38.685
38.385
37.926
37.391
36.866
36.375
35.917
35.512
35.173
34.9
34.697
34.568
34.488
34.442
34.418
34.401
34.381
34.371
34.389
34.41
34.399
34.351
34.265
34.191
34.185
34.377
35.036
36.337
38.116
39.956
41.413
42.2
42.276
41.789
40.96
39.975
38.969
38.054
37.283
36.655
36.188
35.951
35.996
36.323
36.876
37.523
38.107
38.497
38.621
38.487
38.157
37.706
37.202
36.693
36.22
35.79
35.405
35.081
34.815
34.609
34.456
34.367
34.339
34.34
34.348
34.377
34.43
34.487
34.521
34.504
34.43
34.302
34.135
33.985
33.946
34.204
35.049
36.566
38.488
40.343
41.695
42.323
42.249
41.653
40.762
39.747
38.745
37.852
37.098
36.468
35.998
35.789
35.918
36.357
36.988
37.664
38.233
38.588
38.675
38.499
38.131
37.639
37.097
36.574
36.091
35.651
35.266
34.956
34.708
34.499
34.344
34.258
34.246
34.272
34.315
34.37
34.414
34.445
34.475
34.481
34.433
34.321
34.161
33.986
33.845
33.885
34.421
35.69
37.583
39.657
41.39
42.441
42.743
42.406
41.624
40.592
39.513
38.527
37.68
36.972
36.415
36.06
35.992
36.245
36.785
37.48
38.148
38.626
38.84
38.784
38.504
38.082
37.579
37.041
36.494
35.97
35.487
35.096
34.819
34.638
34.516
34.429
34.37
34.35
34.353
34.37
34.402
34.435
34.467
34.478
34.439
34.332
34.176
34.034
33.992
34.241
35.09
36.669
38.714
40.725
42.229
42.966
42.95
42.357
41.423
40.354
39.282
38.297
37.473
36.813
36.332
36.1
36.199
36.638
37.288
37.971
38.526
38.847
38.913
38.724
38.338
37.829
37.286
36.759
36.252
35.777
35.358
35.004
34.734
34.534
34.372
34.259
34.223
34.268
34.344
34.417
34.468
34.48
34.464
34.442
34.405
34.341
34.235
34.095
33.949
33.91
34.266
35.384
37.295
39.577
41.631
43.002
43.531
43.313
42.572
41.531
40.385
39.277
38.325
37.583
37.025
36.633
36.472
36.635
37.102
37.763
38.46
39.001
39.271
39.245
38.971
38.52
37.974
37.384
36.799
36.27
35.803
35.4
35.079
34.809
34.583
34.414
34.323
34.314
34.34
34.359
34.382
34.404
34.422
34.415
34.377
34.31
34.208
34.074
33.899
33.71
33.6
33.83
34.751
36.507
38.837
41.157
42.886
43.735
43.739
43.095
42.054
40.864
39.7
38.69
37.882
37.239
36.758
36.528
36.64
37.08
37.727
38.416
38.997
39.35
39.402
39.176
38.741
38.157
37.509
36.867
36.262
35.739
35.292
34.914
34.62
34.423
34.325
34.294
34.287
34.286
34.298
34.313
34.324
34.343
34.371
34.371
34.314
34.178
33.978
33.756
33.576
33.542
33.878
34.921
36.777
39.123
41.376
43.009
43.783
43.737
43.062
41.99
40.742
39.526
38.479
37.619
36.939
36.446
36.213
36.338
36.831
37.575
38.337
38.907
39.188
39.168
38.882
38.419
37.846
37.221
36.599
36.011
35.482
35.015
34.621
34.324
34.116
33.984
33.917
33.901
33.923
33.963
34.007
34.067
34.125
34.162
34.146
34.064
33.93
33.764
33.6
33.51
33.708
34.567
36.257
38.519
40.812
42.574
43.479
43.52
42.889
41.862
40.693
39.542
38.51
37.647
36.952
36.422
36.13
36.181
36.619
37.313
38.05
38.67
39.058
39.137
38.923
38.488
37.919
37.273
36.597
35.959
35.409
34.957
34.588
34.3
34.08
33.936
33.862
33.847
33.864
33.894
33.939
34.017
34.1
34.151
34.138
34.039
33.882
33.705
33.566
33.601
34.132
35.49
37.604
39.967
41.983
43.243
43.624
43.251
42.385
41.271
40.098
38.995
38.04
37.26
36.647
36.231
36.126
36.405
37.012
37.79
38.517
39.016
39.192
39.046
38.659
38.113
37.482
36.83
36.2
35.623
35.128
34.723
34.419
34.199
34.045
33.967
33.963
33.998
34.035
34.055
34.074
34.113
34.154
34.148
34.078
33.949
33.793
33.74
34.1
35.214
37.143
39.498
41.657
43.124
43.694
43.463
42.676
41.579
40.385
39.261
38.296
37.504
36.88
36.454
36.297
36.494
37.032
37.758
38.483
39.051
39.338
39.308
38.983
38.439
37.762
37.058
36.425
35.891
35.419
34.99
34.627
34.353
34.181
34.095
34.053
34.034
34.045
34.089
34.148
34.194
34.195
34.136
34.02
33.882
33.763
33.809
34.331
35.646
37.738
40.156
42.257
43.583
44.009
43.669
42.818
41.699
40.505
39.384
38.428
37.656
37.04
36.621
36.524
36.839
37.479
38.234
38.898
39.355
39.544
39.417
39.011
38.428
37.768
37.085
36.423
35.825
35.305
34.875
34.55
34.312
34.141
34.056
34.043
34.085
34.175
34.278
34.361
34.407
34.403
34.328
34.183
33.997
33.854
33.939
34.593
36.098
38.333
40.748
42.705
43.825
44.038
43.529
42.595
41.477
40.333
39.287
38.409
37.692
37.146
36.835
36.878
37.291
37.936
38.638
39.243
39.625
39.702
39.454
38.953
38.333
37.697
37.075
36.477
35.923
35.462
35.119
34.876
34.688
34.55
34.472
34.449
34.463
34.512
34.567
34.611
34.643
34.647
34.59
34.435
34.213
34.032
34.055
34.534
35.757
37.742
40.076
42.124
43.43
43.862
43.511
42.622
41.483
40.307
39.227
38.324
37.607
37.073
36.778
36.821
37.207
37.839
38.554
39.153
39.494
39.517
39.251
38.761
38.129
37.438
36.765
36.15
35.589
35.106
34.736
34.498
34.351
34.241
34.176
34.183
34.226
34.263
34.298
34.334
34.365
34.367
34.292
34.143
33.953
33.762
33.601
33.526
33.734
34.581
36.264
38.553
40.865
42.595
43.419
43.355
42.643
41.569
40.368
39.221
38.223
37.407
36.757
36.299
36.148
36.393
36.986
37.767
38.481
38.933
39.069
38.906
38.487
37.886
37.221
36.587
36.018
35.501
35.02
34.6
34.286
34.096
34.013
33.992
33.996
34.019
34.048
34.076
34.104
34.143
34.159
34.123
34.05
33.949
33.818
33.645
33.437
33.217
33.026
32.977
33.376
34.603
36.696
39.19
41.433
42.895
43.384
43.027
42.106
40.896
39.589
38.336
37.238
36.32
35.606
35.191
35.178
35.592
36.351
37.264
38.078
38.608
38.776
38.618
38.192
37.591
36.901
36.201
35.55
34.963
34.455
34.038
33.725
33.52
33.41
33.396
33.458
33.562
33.681
33.806
33.933
34.05
34.121
34.116
34.01
33.799
33.542
33.295
33.09
33.006
33.305
34.314
36.099
38.313
40.383
41.82
42.407
42.186
41.37
40.228
38.983
37.814
36.801
35.948
35.274
34.878
34.882
35.3
36.038
36.935
37.782
38.36
38.554
38.368
37.901
37.265
36.571
35.897
35.276
34.721
34.218
33.781
33.449
33.253
33.186
33.193
33.21
33.246
33.324
33.439
33.552
33.612
33.598
33.528
33.433
33.312
33.164
33.062
33.267
34.159
35.894
38.189
40.46
42.134
42.922
42.863
42.158
41.088
39.876
38.682
37.608
36.686
35.899
35.276
34.961
35.098
35.703
36.614
37.592
38.39
38.855
38.936
38.692
38.211
37.581
36.869
36.157
35.503
34.937
34.461
34.104
33.862
33.714
33.647
33.656
33.743
33.884
34.035
34.153
34.184
34.132
34.032
33.902
33.759
33.604
33.56
33.958
35.159
37.193
39.606
41.759
43.177
43.709
43.456
42.624
41.479
40.255
39.116
38.123
37.292
36.61
36.119
35.957
36.206
36.811
37.61
38.396
38.967
39.21
39.095
38.711
38.169
37.529
36.827
36.135
35.515
34.978
34.513
34.13
33.846
33.656
33.56
33.553
33.634
33.773
33.93
34.054
34.112
34.104
34.035
33.901
33.731
33.559
33.463
33.727
34.762
36.701
39.178
41.577
43.337
44.166
44.111
43.427
42.404
41.235
40.054
39.002
38.153
37.458
36.905
36.604
36.643
37.021
37.633
38.347
38.99
39.41
39.528
39.307
38.804
38.141
37.414
36.679
35.989
35.384
34.898
34.525
34.277
34.153
34.121
34.129
34.137
34.132
34.149
34.192
34.235
34.266
34.272
34.224
34.099
33.903
33.678
33.447
33.242
33.326
34.166
36.039
38.682
41.4
43.518
44.67
44.845
44.268
43.23
42.002
40.789
39.739
38.921
38.319
37.852
37.502
37.375
37.547
37.95
38.453
38.906
39.182
39.216
38.996
38.557
37.962
37.286
36.565
35.844
35.202
34.669
34.254
33.951
33.725
33.564
33.477
33.454
33.468
33.502
33.546
33.59
33.619
33.598
33.513
33.371
33.199
33.034
32.865
32.673
32.469
32.258
32.067
31.982
32.322
33.582
35.945
38.962
41.846
43.917
44.9
44.9
44.194
43.054
41.731
40.466
39.419
38.654
38.127
37.754
37.532
37.503
37.717
38.116
38.555
38.894
39.034
38.942
38.616
38.111
37.485
36.778
36.055
35.367
34.753
34.229
33.792
33.449
33.21
33.065
32.992
32.991
33.061
33.149
33.203
33.193
33.124
33.046
32.98
32.914
32.834
32.739
32.613
32.453
32.272
32.095
31.925
31.772
31.631
31.51
31.407
31.318
31.332
31.778
33.164
35.666
38.794
41.705
43.737
44.678
44.66
43.964
42.875
41.601
40.35
39.271
38.428
37.788
37.279
36.922
36.821
37.035
37.51
38.117
38.684
39.063
39.177
39.001
38.564
37.948
37.224
36.471
35.743
35.089
34.521
34.057
33.707
33.479
33.378
33.391
33.474
33.568
33.63
33.645
33.624
33.575
33.503
33.422
33.316
33.165
32.991
32.802
32.598
32.401
32.238
32.12
32.021
31.935
31.857
31.752
31.62
31.497
31.405
31.365
31.56
32.459
34.488
37.477
40.674
43.273
44.802
45.242
44.847
43.92
42.698
41.367
40.108
39.056
38.271
37.692
37.24
36.967
37.006
37.399
38.051
38.773
39.378
39.752
39.825
39.598
39.123
38.477
37.788
37.13
36.503
35.917
35.42
35.039
34.777
34.636
34.594
34.594
34.616
34.668
34.73
34.756
34.743
34.682
34.58
34.459
34.32
34.138
33.903
33.666
33.451
33.257
33.081
32.93
32.792
32.628
32.445
32.273
32.118
32.082
32.513
33.917
36.453
39.595
42.463
44.415
45.285
45.212
44.467
43.342
42.074
40.813
39.671
38.72
37.981
37.397
36.973
36.827
37.043
37.595
38.329
39.023
39.507
39.68
39.543
39.162
38.6
37.906
37.148
36.376
35.642
34.99
34.44
34.008
33.69
33.481
33.384
33.365
33.402
33.485
33.585
33.672
33.729
33.738
33.705
33.631
33.535
33.418
33.294
33.158
32.986
32.767
32.524
32.295
32.106
32.103
32.77
34.58
37.435
40.607
43.261
44.906
45.485
45.207
44.365
43.22
41.957
40.722
39.635
38.758
38.073
37.553
37.223
37.176
37.456
37.99
38.631
39.222
39.611
39.704
39.494
39.037
38.414
37.694
36.933
36.167
35.434
34.782
34.243
33.827
33.536
33.359
33.286
33.307
33.391
33.494
33.573
33.624
33.661
33.683
33.682
33.63
33.513
33.352
33.151
32.92
32.683
32.453
32.278
32.342
33.084
34.919
37.721
40.81
43.402
45.017
45.596
45.33
44.479
43.287
41.98
40.74
39.697
38.893
38.28
37.806
37.521
37.518
37.835
38.363
38.956
39.459
39.757
39.796
39.579
39.135
38.514
37.764
36.981
36.236
35.561
34.984
34.521
34.168
33.918
33.753
33.654
33.602
33.595
33.631
33.688
33.728
33.748
33.747
33.724
33.667
33.569
33.434
33.287
33.122
32.922
32.695
32.497
32.517
33.145
34.792
37.422
40.436
43.079
44.843
45.583
45.448
44.703
43.603
42.357
41.129
40.074
39.263
38.643
38.158
37.84
37.791
38.035
38.497
39.04
39.491
39.726
39.718
39.475
39.024
38.405
37.696
36.954
36.238
35.577
34.981
34.467
34.065
33.787
33.617
33.547
33.548
33.59
33.645
33.709
33.77
33.812
33.807
33.733
33.611
33.49
33.381
33.25
33.079
32.881
32.67
32.45
32.218
32.052
32.183
33.105
35.149
38.077
41.144
43.56
44.954
45.349
44.973
44.095
42.935
41.668
40.445
39.388
38.553
37.895
37.376
37.077
37.144
37.581
38.217
38.854
39.333
39.546
39.469
39.133
38.625
38.018
37.341
36.6
35.82
35.073
34.422
33.897
33.505
33.241
33.1
33.054
33.07
33.121
33.198
33.288
33.367
33.422
33.446
33.415
33.331
33.225
33.106
32.963
32.799
32.606
32.384
32.144
31.929
31.829
32.133
33.34
35.647
38.595
41.398
43.412
44.409
44.501
43.927
42.918
41.693
40.406
39.161
38.031
37.046
36.23
35.684
35.538
35.876
36.595
37.452
38.212
38.707
38.862
38.686
38.261
37.671
36.973
36.188
35.346
34.509
33.727
33.052
32.509
32.115
31.869
31.743
31.722
31.807
32.004
32.271
32.527
32.714
32.802
32.802
32.768
32.711
32.636
32.512
32.33
32.117
31.895
31.68
31.5
31.467
31.907
33.214
35.384
37.876
39.987
41.273
41.672
41.36
40.588
39.559
38.374
37.094
35.765
34.414
33.137
32.119
31.605
31.799
32.725
34.156
35.666
36.884
37.643
37.925
37.817
37.45
36.946
36.354
35.677
34.965
34.281
33.663
33.129
32.698
32.388
32.206
32.148
32.174
32.248
32.364
32.49
32.591
32.67
32.736
32.825
33.094
33.836
35.262
37.231
39.275
40.89
41.786
41.953
41.547
40.785
39.811
38.688
37.427
36.046
34.6
33.249
32.235
31.828
32.217
33.34
34.877
36.388
37.517
38.139
38.281
38.069
37.645
37.1
36.502
35.883
35.269
34.683
34.146
33.673
33.279
32.975
32.75
32.594
32.489
32.423
32.404
32.445
32.678
33.489
35.282
37.961
40.852
43.173
44.47
44.77
44.366
43.521
42.413
41.164
39.853
38.535
37.24
36.011
34.937
34.229
34.141
34.767
35.95
37.319
38.499
39.266
39.557
39.448
39.08
38.577
38.015
37.402
36.73
36.03
35.358
34.786
34.349
34.043
33.851
33.732
33.652
33.611
33.621
33.732
34.142
35.241
37.248
39.891
42.525
44.529
45.629
45.899
45.497
44.611
43.437
42.144
40.912
39.827
38.86
37.998
37.314
36.993
37.181
37.851
38.799
39.718
40.352
40.623
40.563
40.241
39.731
39.096
38.398
37.705
37.072
36.515
36.06
35.691
35.399
35.183
35.058
35.001
34.953
34.89
34.843
34.903
35.357
36.608
38.742
41.339
43.754
45.46
46.263
46.285
45.752
44.856
43.727
42.498
41.343
40.368
39.551
38.859
38.362
38.198
38.406
38.89
39.487
40.018
40.347
40.388
40.139
39.658
39.04
38.365
37.657
36.944
36.299
35.741
35.271
34.919
34.682
34.549
34.51
34.535
34.555
34.547
34.503
34.42
34.349
34.44
35.022
36.452
38.693
41.249
43.49
44.994
45.648
45.538
44.841
43.773
42.556
41.372
40.385
39.639
39.072
38.624
38.332
38.28
38.479
38.846
39.23
39.51
39.617
39.504
39.171
38.665
38.052
37.379
36.685
36.006
35.39
34.874
34.471
34.177
33.987
33.893
33.865
33.862
33.869
33.884
33.912
33.93
33.898
33.801
33.658
33.5
33.363
33.344
33.778
35.094
37.35
40.068
42.525
44.206
44.955
44.859
44.159
43.12
41.949
40.81
39.844
39.105
38.543
38.11
37.837
37.783
37.977
38.347
38.777
39.119
39.266
39.172
38.833
38.286
37.616
36.912
36.235
35.626
35.088
34.613
34.236
33.977
33.791
33.644
33.551
33.499
33.496
33.528
33.558
33.578
33.585
33.57
33.507
33.395
33.253
33.098
32.919
32.706
32.483
32.278
32.15
32.392
33.509
35.779
38.82
41.774
43.923
45.001
45.12
44.546
43.553
42.348
41.112
39.997
39.07
38.33
37.78
37.442
37.367
37.593
38.048
38.589
39.06
39.316
39.284
38.998
38.513
37.903
37.229
36.537
35.876
35.277
34.748
34.304
33.968
33.755
33.636
33.588
33.59
33.619
33.651
33.658
33.637
33.589
33.522
33.44
33.341
33.232
33.124
33.016
32.864
32.665
32.434
32.219
32.062
32.134
32.892
34.743
37.532
40.56
43.055
44.541
44.97
44.585
43.674
42.466
41.177
39.974
38.941
38.097
37.433
36.96
36.76
36.91
37.366
37.989
38.593
39.017
39.171
39.026
38.64
38.09
37.423
36.69
35.945
35.241
34.613
34.096
33.706
33.447
33.306
33.268
33.303
33.341
33.352
33.349
33.337
33.318
33.286
33.23
33.154
33.08
33.019
32.933
32.792
32.594
32.37
32.148
31.94
31.781
31.888
32.784
34.84
37.763
40.767
43.102
44.402
44.716
44.283
43.332
42.083
40.753
39.491
38.39
37.488
36.743
36.207
36.031
36.299
36.939
37.721
38.389
38.814
38.943
38.784
38.389
37.805
37.103
36.339
35.577
34.873
34.257
33.731
33.312
33.03
32.859
32.761
32.727
32.77
32.865
32.981
33.071
33.117
33.128
33.115
33.075
33.015
32.919
32.759
32.547
32.314
32.083
31.854
31.652
31.72
32.585
34.601
37.502
40.506
42.849
44.158
44.461
44.019
43.102
41.904
40.55
39.184
37.949
36.888
35.994
35.341
35.067
35.296
35.993
36.957
37.908
38.57
38.824
38.697
38.281
37.694
37.014
36.279
35.55
34.862
34.216
33.64
33.186
32.895
32.726
32.633
32.604
32.621
32.671
32.742
32.821
32.888
32.941
32.986
32.997
32.948
32.841
32.662
32.443
32.219
32.014
31.882
32.068
33.087
35.233
38.146
41.004
43.085
44.106
44.168
43.553
42.548
41.321
39.975
38.619
37.34
36.191
35.218
34.549
34.361
34.757
35.638
36.747
37.766
38.441
38.677
38.527
38.114
37.544
36.882
36.168
35.416
34.662
33.98
33.41
32.971
32.673
32.485
32.38
32.337
32.346
32.411
32.504
32.619
32.739
32.838
32.895
32.896
32.84
32.737
32.607
32.451
32.293
32.211
32.529
33.756
36.032
38.856
41.451
43.243
44.033
43.961
43.285
42.24
40.969
39.583
38.189
36.864
35.669
34.678
34.036
33.94
34.478
35.507
36.695
37.718
38.381
38.622
38.507
38.135
37.587
36.925
36.21
35.495
34.814
34.182
33.628
33.183
32.847
32.619
32.482
32.435
32.473
32.568
32.679
32.793
32.904
32.991
33.026
32.98
32.886
32.778
32.678
32.646
33.013
34.257
36.463
39.142
41.552
43.153
43.819
43.698
43.013
41.967
40.702
39.324
37.943
36.625
35.375
34.267
33.535
33.449
34.085
35.256
36.584
37.725
38.463
38.724
38.595
38.214
37.659
36.981
36.223
35.435
34.665
33.951
33.317
32.777
32.333
31.958
31.64
31.395
31.234
31.126
31.069
31.086
31.165
31.263
31.355
31.446
31.584
31.881
32.632
34.174
36.465
38.969
41.028
42.249
42.609
42.297
41.537
40.503
39.295
37.982
36.615
35.277
34.032
33.0
32.407
32.536
33.489
35.01
36.592
37.791
38.426
38.56
38.357
37.954
37.421
36.791
36.126
35.457
34.802
34.219
33.752
33.418
33.214
33.116
33.089
33.075
33.048
33.033
33.057
33.133
33.337
33.901
35.085
36.873
38.896
40.647
41.786
42.208
41.959
41.203
40.138
38.909
37.597
36.212
34.807
33.518
32.553
32.165
32.518
33.562
34.994
36.386
37.397
37.898
37.956
37.704
37.293
36.816
36.3
35.777
35.255
34.746
34.265
33.853
33.552
33.351
33.201
33.046
32.901
32.818
32.804
32.91
33.429
34.804
37.133
39.948
42.517
44.283
45.095
45.086
44.468
43.406
42.08
40.66
39.258
37.92
36.676
35.604
34.859
34.659
35.137
36.185
37.462
38.585
39.309
39.614
39.584
39.296
38.822
38.223
37.534
36.826
36.182
35.641
35.188
34.805
34.501
34.291
34.168
34.087
34.023
33.977
33.968
34.03
34.404
35.538
37.658
40.412
43.084
45.035
46.001
46.076
45.49
44.497
43.28
41.956
40.638
39.458
38.457
37.626
37.032
36.814
37.069
37.729
38.588
39.376
39.891
40.064
39.918
39.523
38.955
38.28
37.574
36.885
36.227
35.636
35.143
34.767
34.521
34.376
34.306
34.279
34.264
34.234
34.203
34.257
34.617
35.656
37.538
39.986
42.413
44.267
45.274
45.421
44.877
43.866
42.602
41.307
40.177
39.285
38.583
37.991
37.533
37.336
37.481
37.897
38.438
38.952
39.295
39.361
39.152
38.738
38.161
37.484
36.784
36.12
35.508
34.977
34.556
34.241
34.031
33.93
33.921
33.964
34.039
34.099
34.079
33.968
33.822
33.748
33.949
34.755
36.413
38.764
41.239
43.242
44.431
44.747
44.353
43.49
42.376
41.2
40.115
39.213
38.478
37.88
37.464
37.309
37.467
37.857
38.339
38.773
39.019
38.995
38.712
38.218
37.576
36.879
36.197
35.581
35.053
34.582
34.171
33.847
33.623
33.495
33.46
33.492
33.549
33.607
33.654
33.667
33.628
33.546
33.449
33.358
33.386
33.861
35.164
37.304
39.825
42.095
43.609
44.183
43.943
43.168
42.13
41.014
39.952
39.025
38.268
37.663
37.221
37.029
37.142
37.521
38.036
38.497
38.778
38.824
38.617
38.194
37.622
36.952
36.261
35.618
35.039
34.549
34.161
33.873
33.677
33.565
33.524
33.545
33.606
33.676
33.717
33.722
33.711
33.691
33.618
33.462
33.224
32.945
32.688
32.532
32.707
33.608
35.479
38.068
40.723
42.774
43.864
44.0
43.42
42.429
41.276
40.167
39.227
38.471
37.83
37.242
36.814
36.7
36.947
37.45
38.033
38.536
38.825
38.806
38.486
37.946
37.28
36.587
35.922
35.309
34.77
34.328
34.01
33.797
33.679
33.639
33.65
33.687
33.736
33.792
33.844
33.875
33.876
33.832
33.723
33.561
33.375
33.166
32.946
32.732
32.569
32.607
33.219
34.786
37.267
40.089
42.522
44.034
44.502
44.107
43.163
41.978
40.78
39.726
38.889
38.257
37.743
37.31
37.069
37.116
37.434
37.926
38.435
38.797
38.913
38.746
38.313
37.684
36.986
36.307
35.674
35.1
34.596
34.164
33.839
33.643
33.528
33.475
33.457
33.461
33.491
33.559
33.636
33.679
33.674
33.619
33.542
33.465
33.372
33.215
32.977
32.697
32.425
32.235
32.389
33.341
35.368
38.151
40.937
43.038
44.134
44.287
43.754
42.816
41.718
40.641
39.706
38.973
38.409
37.984
37.714
37.642
37.793
38.133
38.55
38.901
39.081
39.037
38.767
38.296
37.677
36.977
36.252
35.576
35.02
34.59
34.263
34.02
33.845
33.727
33.663
33.648
33.66
33.674
33.665
33.62
33.563
33.492
33.393
33.271
33.14
33.011
32.88
32.749
32.6
32.435
32.283
32.158
32.085
32.251
33.102
35.002
37.759
40.644
42.913
44.17
44.395
43.857
42.889
41.748
40.634
39.677
38.923
38.347
37.892
37.568
37.436
37.524
37.798
38.171
38.542
38.821
38.907
38.753
38.391
37.854
37.197
36.488
35.797
35.189
34.697
34.325
34.058
33.858
33.699
33.591
33.55
33.552
33.562
33.568
33.554
33.531
33.501
33.441
33.333
33.178
33.005
32.835
32.683
32.552
32.409
32.232
32.045
31.869
31.727
31.705
32.059
33.253
35.51
38.447
41.274
43.309
44.277
44.299
43.67
42.663
41.471
40.258
39.183
38.353
37.742
37.272
36.948
36.861
37.059
37.522
38.117
38.663
39.014
39.079
38.859
38.418
37.838
37.175
36.474
35.785
35.143
34.611
34.202
33.889
33.66
33.518
33.477
33.499
33.53
33.566
33.613
33.661
33.69
33.677
33.617
33.521
33.398
33.248
33.088
32.919
32.732
32.542
32.343
32.127
31.93
31.817
31.973
32.87
34.889
37.761
40.714
42.988
44.21
44.409
43.866
42.886
41.692
40.438
39.256
38.243
37.436
36.784
36.27
36.02
36.167
36.695
37.453
38.223
38.788
39.045
38.976
38.627
38.091
37.442
36.739
36.039
35.397
34.845
34.392
34.023
33.71
33.478
33.338
33.286
33.311
33.378
33.442
33.497
33.535
33.55
33.554
33.541
33.494
33.385
33.193
32.936
32.667
32.447
32.306
32.342
32.95
34.556
37.097
39.954
42.357
43.831
44.301
43.96
43.084
41.914
40.639
39.393
38.249
37.248
36.404
35.752
35.409
35.498
36.047
36.915
37.849
38.593
38.994
39.042
38.77
38.267
37.631
36.938
36.218
35.494
34.801
34.193
33.719
33.37
33.102
32.909
32.79
32.748
32.779
32.844
32.903
32.947
32.95
32.884
32.784
32.693
32.578
32.392
32.138
31.844
31.556
31.369
31.563
32.66
34.93
37.956
40.882
42.976
43.978
44.005
43.35
42.322
41.124
39.86
38.604
37.452
36.452
35.596
34.937
34.673
35.003
35.899
37.102
38.244
39.051
39.424
39.38
39.025
38.489
37.852
37.157
36.436
35.712
35.028
34.429
33.965
33.646
33.453
33.354
33.34
33.383
33.472
33.6
33.713
33.762
33.745
33.699
33.669
33.701
33.99
34.942
36.776
39.181
41.516
43.211
44.037
44.053
43.469
42.494
41.299
40.008
38.714
37.519
36.475
35.608
35.035
34.929
35.367
36.222
37.213
38.096
38.706
38.951
38.857
38.518
38.005
37.371
36.662
35.947
35.277
34.708
34.248
33.879
33.59
33.378
33.265
33.261
33.331
33.422
33.5
33.562
33.614
33.64
33.608
33.53
33.539
33.999
35.345
37.604
40.252
42.594
44.154
44.793
44.621
43.868
42.76
41.483
40.201
39.007
37.931
36.991
36.245
35.823
35.879
36.428
37.311
38.267
39.036
39.489
39.603
39.418
38.99
38.39
37.668
36.869
36.049
35.281
34.617
34.076
33.648
33.292
32.982
32.72
32.542
32.49
32.533
32.59
32.602
32.555
32.464
32.381
32.415
32.86
34.128
36.299
38.902
41.217
42.738
43.349
43.191
42.506
41.497
40.309
39.097
37.993
37.018
36.139
35.433
35.102
35.313
36.028
37.013
37.983
38.714
39.082
39.098
38.839
38.375
37.781
37.123
36.445
35.807
35.258
34.822
34.518
34.333
34.247
34.218
34.217
34.204
34.148
34.067
33.995
33.994
34.135
34.59
35.603
37.204
39.101
40.848
42.067
42.584
42.455
41.848
40.925
39.842
38.734
37.684
36.694
35.809
35.181
35.0
35.327
36.055
36.93
37.721
38.305
38.602
38.564
38.257
37.765
37.136
36.434
35.752
35.142
34.64
34.261
33.981
33.794
33.69
33.641
33.634
33.63
33.589
33.506
33.385
33.245
33.122
33.074
33.296
34.133
35.741
37.884
40.011
41.602
42.405
42.442
41.908
41.022
39.929
38.766
37.66
36.682
35.855
35.224
34.867
34.878
35.247
35.876
36.624
37.326
37.808
37.951
37.78
37.407
36.909
36.296
35.61
34.92
34.304
33.777
33.341
33.009
32.796
32.672
32.626
32.651
32.726
32.8
32.851
32.883
32.881
32.818
32.694
32.639
32.988
34.152
36.212
38.762
41.152
42.87
43.709
43.758
43.242
42.383
41.351
40.252
39.172
38.178
37.286
36.542
36.066
35.996
36.333
36.913
37.519
38.004
38.274
38.296
38.071
37.627
37.038
36.372
35.685
35.02
34.424
33.927
33.54
33.256
33.044
32.887
32.787
32.742
32.735
32.713
32.649
32.576
32.588
32.92
33.885
35.548
37.619
39.644
41.211
42.115
42.376
42.139
41.568
40.835
40.069
39.292
38.456
37.547
36.688
36.063
35.802
35.922
36.307
36.765
37.146
37.333
37.307
37.145
36.913
36.638
36.285
35.829
35.325
34.856
34.459
34.139
33.859
33.588
33.345
33.159
33.013
32.902
32.852
32.935
33.407
34.583
36.492
38.767
40.854
42.351
43.118
43.212
42.764
41.926
40.85
39.675
38.519
37.449
36.489
35.742
35.347
35.363
35.731
36.31
36.922
37.406
37.649
37.595
37.265
36.761
36.149
35.487
34.852
34.289
33.797
33.35
32.957
32.641
32.437
32.364
32.399
32.482
32.556
32.618
32.639
32.579
32.47
32.395
32.599
33.522
35.458
38.155
40.966
43.244
44.627
45.075
44.733
43.848
42.683
41.479
40.411
39.528
38.79
38.159
37.665
37.401
37.412
37.671
38.036
38.334
38.451
38.36
38.072
37.616
37.014
36.346
35.669
34.987
34.31
33.68
33.151
32.767
32.532
32.365
32.207
32.059
31.94
31.86
31.817
31.791
31.731
31.632
31.522
31.409
31.273
31.108
30.907
30.678
30.439
30.195
29.988
29.903
30.201
31.267
33.204
35.649
37.929
39.504
40.172
40.034
39.368
38.452
37.519
36.721
36.11
35.647
35.264
34.931
34.698
34.622
34.698
34.892
35.142
35.375
35.468
35.353
35.049
34.639
34.207
33.766
33.325
32.917
32.54
32.208
31.938
31.723
31.561
31.42
31.281
31.164
31.087
31.023
30.961
30.905
30.862
30.805
30.709
30.593
30.479
30.349
30.177
29.983
29.832
29.853
30.254
31.233
32.765
34.504
35.953
36.77
36.904
36.533
35.897
35.207
34.599
34.122
33.758
33.482
33.246
33.054
32.954
32.986
33.145
33.392
33.654
33.855
33.915
33.811
33.58
33.288
33.013
32.77
32.52
32.263
32.031
31.826
31.63
31.462
31.353
31.321
31.327
31.331
31.33
31.326
31.3
31.265
31.252
31.282
31.318
31.32
31.271
31.181
31.078
30.99
30.947
31.01
31.357
32.169
33.42
34.802
35.885
36.403
36.357
35.908
35.272
34.598
33.998
33.534
33.21
33.007
32.89
32.84
32.871
33.008
33.255
33.566
33.858
34.063
34.136
34.06
33.879
33.645
33.387
33.133
32.883
32.655
32.485
32.394
32.352
32.32
32.285
32.248
32.223
32.231
32.254
32.274
32.261
32.222
32.17
32.115
32.062
32.041
32.053
32.146
32.456
33.122
34.095
35.095
35.798
36.022
35.785
35.275
34.686
34.119
33.617
33.204
32.886
32.645
32.507
32.515
32.666
32.937
33.285
33.659
33.977
34.154
34.17
34.053
33.848
33.576
33.265
32.96
32.683
32.46
32.302
32.219
32.22
32.267
32.328
32.38
32.424
32.463
32.489
32.506
32.498
32.492
32.496
32.534
32.693
33.121
33.921
34.925
35.807
36.331
36.386
36.041
35.468
34.847
34.312
33.889
33.569
33.316
33.096
32.969
33.028
33.268
33.612
33.981
34.317
34.571
34.722
34.753
34.65
34.407
34.061
33.708
33.441
33.279
33.179
33.089
33.005
32.975
33.007
33.052
33.099
33.138
33.155
33.16
33.17
33.182
33.189
33.222
33.365
33.781
34.596
35.688
36.729
37.407
37.572
37.27
36.675
35.967
35.307
34.808
34.514
34.382
34.324
34.285
34.277
34.344
34.51
34.774
35.093
35.374
35.539
35.555
35.437
35.238
35.001
34.736
34.442
34.151
33.904
33.734
33.64
33.606
33.6
33.622
33.694
33.782
33.856
33.908
33.941
33.97
33.996
33.992
33.926
33.826
33.738
33.698
33.794
34.173
34.971
36.098
37.229
38.001
38.261
38.062
37.539
36.857
36.188
35.65
35.289
35.091
35.006
34.991
35.032
35.112
35.234
35.418
35.656
35.886
36.042
36.079
36.02
35.913
35.753
35.531
35.29
35.07
34.886
34.708
34.574
34.525
34.521
34.515
34.503
34.508
34.549
34.605
34.664
34.706
34.736
34.754
34.734
34.705
34.667
34.583
34.46
34.34
34.253
34.247
34.455
35.058
36.1
37.331
38.36
38.933
38.988
38.596
37.959
37.282
36.703
36.287
36.028
35.87
35.768
35.702
35.701
35.784
35.95
36.163
36.381
36.549
36.651
36.659
36.561
36.38
36.156
35.916
35.685
35.487
35.316
35.149
34.995
34.892
34.859
34.849
34.832
34.817
34.766
34.687
34.648
34.637
34.605
34.55
34.496
34.453
34.405
34.34
34.266
34.205
34.204
34.297
34.613
35.354
36.483
37.684
38.604
39.029
38.97
38.599
38.083
37.541
37.027
36.568
36.2
35.936
35.75
35.635
35.626
35.717
35.902
36.189
36.521
36.804
36.966
36.972
36.821
36.58
36.33
36.112
35.924
35.756
35.585
35.416
35.274
35.177
35.102
35.027
34.959
34.911
34.892
34.894
34.883
34.845
34.805
34.791
34.798
34.807
34.886
35.218
35.935
36.949
37.966
38.698
39.022
38.963
38.624
38.136
37.63
37.182
36.82
36.521
36.259
36.047
35.893
35.847
35.986
36.302
36.686
37.042
37.285
37.358
37.288
37.125
36.913
36.68
36.448
36.225
36.013
35.818
35.657
35.554
35.487
35.416
35.349
35.277
35.199
35.12
35.051
35.02
35.03
35.099
35.342
35.963
36.998
38.196
39.19
39.742
39.833
39.576
39.141
38.65
38.16
37.707
37.323
36.984
36.678
36.431
36.275
36.276
36.488
36.849
37.249
37.564
37.7
37.645
37.456
37.223
36.994
36.756
36.504
36.262
36.075
35.937
35.785
35.62
35.489
35.416
35.387
35.362
35.336
35.294
35.242
35.184
35.108
35.065
35.211
35.765
36.834
38.249
39.614
40.6
41.072
41.064
40.716
40.205
39.677
39.192
38.771
38.39
38.035
37.712
37.477
37.397
37.48
37.678
37.968
38.287
38.53
38.619
38.522
38.29
38.01
37.721
37.435
37.144
36.869
36.631
36.421
36.232
36.064
35.916
35.798
35.708
35.651
35.605
35.553
35.489
35.436
35.412
35.4
35.374
35.354
35.505
36.108
37.29
38.819
40.265
41.289
41.772
41.77
41.394
40.795
40.158
39.613
39.178
38.819
38.483
38.172
37.945
37.867
37.98
38.241
38.54
38.783
38.901
38.855
38.671
38.415
38.145
37.856
37.514
37.152
36.829
36.56
36.346
36.185
36.056
35.941
35.839
35.773
35.738
35.714
35.681
35.64
35.585
35.506
35.387
35.234
35.104
35.063
35.302
36.051
37.326
38.826
40.117
40.901
41.139
40.95
40.502
39.953
39.414
38.946
38.56
38.216
37.89
37.605
37.438
37.465
37.679
37.999
38.353
38.646
38.789
38.739
38.53
38.216
37.851
37.479
37.114
36.76
36.441
36.19
35.985
35.796
35.636
35.518
35.44
35.376
35.303
35.249
35.215
35.192
35.179
35.234
35.517
36.223
37.376
38.747
39.99
40.822
41.148
41.013
40.555
39.947
39.344
38.813
38.335
37.893
37.482
37.153
36.972
36.992
37.222
37.596
37.991
38.294
38.421
38.353
38.143
37.842
37.483
37.113
36.772
36.486
36.241
36.007
35.787
35.591
35.428
35.283
35.173
35.098
35.026
34.937
34.853
34.816
34.94
35.439
36.433
37.777
39.124
40.121
40.59
40.559
40.169
39.599
38.976
38.341
37.722
37.136
36.622
36.225
35.971
35.885
35.991
36.275
36.652
37.008
37.247
37.322
37.233
37.004
36.693
36.359
36.031
35.716
35.417
35.13
34.874
34.656
34.479
34.342
34.232
34.141
34.075
34.042
34.022
33.981
33.928
33.933
34.13
34.738
35.868
37.326
38.738
39.789
40.305
40.296
39.907
39.316
38.664
38.022
37.429
36.885
36.4
36.003
35.758
35.733
35.959
36.376
36.842
37.211
37.399
37.407
37.285
37.062
36.759
36.435
36.114
35.799
35.501
35.238
35.028
34.862
34.73
34.619
34.533
34.476
34.424
34.374
34.346
34.362
34.486
34.889
35.749
37.053
38.522
39.77
40.531
40.746
40.515
40.0
39.343
38.655
37.988
37.368
36.811
36.336
36.0
35.869
35.997
36.341
36.775
37.154
37.383
37.444
37.359
37.162
36.894
36.595
36.298
36.026
35.778
35.53
35.273
35.027
34.823
34.679
34.589
34.537
34.507
34.469
34.407
34.324
34.255
34.289
34.633
35.524
36.982
38.701
40.261
41.364
41.884
41.841
41.368
40.661
39.892
39.163
38.508
37.94
37.466
37.099
36.903
36.937
37.2
37.597
37.994
38.297
38.453
38.438
38.258
37.954
37.588
37.195
36.817
36.475
36.176
35.902
35.639
35.391
35.165
34.997
34.913
34.872
34.836
34.78
34.707
34.624
34.557
34.518
34.487
34.537
34.924
35.915
37.5
39.347
41.005
42.129
42.604
42.5
41.984
41.248
40.471
39.772
39.174
38.664
38.228
37.893
37.735
37.798
38.054
38.41
38.735
38.941
38.988
38.864
38.596
38.24
37.837
37.426
37.04
36.695
36.381
36.112
35.855
35.609
35.419
35.288
35.184
35.098
35.044
35.024
35.011
34.973
34.889
34.771
34.653
34.545
34.43
34.341
34.371
34.788
35.869
37.579
39.528
41.212
42.277
42.621
42.388
41.798
41.048
40.274
39.56
38.922
38.362
37.896
37.578
37.477
37.597
37.871
38.209
38.516
38.713
38.743
38.586
38.258
37.827
37.373
36.949
36.567
36.199
35.833
35.489
35.187
34.936
34.758
34.628
34.507
34.42
34.384
34.385
34.372
34.332
34.273
34.209
34.14
34.048
33.946
33.819
33.672
33.539
33.471
33.618
34.259
35.608
37.516
39.51
41.104
42.025
42.242
41.914
41.267
40.475
39.681
38.951
38.297
37.716
37.231
36.916
36.838
37.006
37.369
37.813
38.215
38.471
38.515
38.339
38.01
37.624
37.218
36.794
36.362
35.969
35.627
35.347
35.11
34.907
34.755
34.651
34.58
34.528
34.483
34.448
34.446
34.465
34.465
34.433
34.377
34.287
34.173
34.051
33.949
33.958
34.288
35.181
36.665
38.453
40.092
41.209
41.672
41.542
40.982
40.194
39.365
38.614
37.958
37.36
36.806
36.369
36.168
36.262
36.627
37.146
37.638
37.968
38.073
37.963
37.7
37.327
36.904
36.484
36.082
35.714
35.391
35.105
34.852
34.629
34.445
34.306
34.194
34.124
34.101
34.111
34.145
34.184
34.183
34.129
34.056
33.98
33.889
33.792
33.678
33.578
33.644
34.185
35.444
37.331
39.412
41.189
42.308
42.66
42.402
41.774
40.981
40.152
39.365
38.667
38.076
37.577
37.191
37.022
37.119
37.456
37.932
38.377
38.682
38.784
38.686
38.429
38.064
37.623
37.131
36.638
36.202
35.837
35.527
35.253
35.012
34.807
34.65
34.551
34.499
34.471
34.453
34.458
34.483
34.481
34.444
34.381
34.318
34.23
34.096
33.95
33.828
33.775
33.939
34.63
36.068
38.086
40.209
41.927
42.922
43.159
42.793
42.072
41.224
40.392
39.618
38.908
38.266
37.735
37.404
37.336
37.532
37.921
38.396
38.821
39.092
39.156
38.997
38.654
38.201
37.7
37.209
36.775
36.38
36.002
35.642
35.324
35.085
34.934
34.846
34.785
34.741
34.721
34.698
34.653
34.6
34.567
34.538
34.477
34.375
34.234
34.062
33.87
33.711
33.726
34.17
35.278
37.035
39.096
40.965
42.243
42.784
42.666
42.093
41.282
40.403
39.572
38.843
38.212
37.666
37.252
37.058
37.145
37.498
38.004
38.488
38.827
38.963
38.883
38.614
38.228
37.79
37.323
36.832
36.359
35.951
35.623
35.349
35.135
35.001
34.912
34.828
34.759
34.729
34.745
34.755
34.735
34.702
34.672
34.624
34.541
34.408
34.227
34.066
34.046
34.403
35.411
37.058
38.975
40.655
41.756
42.2
42.096
41.603
40.886
40.065
39.232
38.459
37.784
37.233
36.875
36.807
37.065
37.534
38.073
38.573
38.904
38.971
38.798
38.456
38.036
37.615
37.187
36.746
36.347
36.0
35.682
35.412
35.206
35.065
34.978
34.926
34.898
34.904
34.92
34.899
34.836
34.751
34.653
34.559
34.542
34.845
35.737
37.249
39.076
40.776
41.973
42.503
42.416
41.896
41.145
40.309
39.499
38.768
38.107
37.508
37.051
36.855
36.949
37.299
37.796
38.279
38.599
38.684
38.543
38.241
37.83
37.371
36.913
36.476
36.067
35.689
35.339
35.045
34.823
34.642
34.469
34.293
34.125
33.978
33.88
33.844
33.847
33.862
33.859
33.825
33.793
33.769
33.738
33.709
33.837
34.428
35.737
37.727
39.99
41.994
43.339
43.892
43.751
43.136
42.282
41.359
40.467
39.659
38.952
38.354
37.925
37.734
37.813
38.134
38.578
38.995
39.271
39.347
39.222
38.898
38.441
37.935
37.443
37.005
36.586
36.186
35.843
35.575
35.377
35.233
35.125
35.043
34.97
34.9
34.837
34.79
34.748
34.695
34.63
34.556
34.469
34.34
34.16
33.946
33.736
33.6
33.69
34.263
35.572
37.585
39.91
42.0
43.434
44.024
43.855
43.209
42.359
41.477
40.664
39.975
39.411
38.943
38.567
38.346
38.342
38.553
38.874
39.188
39.4
39.423
39.218
38.849
38.382
37.86
37.314
36.784
36.301
35.865
35.506
35.221
34.985
34.815
34.71
34.63
34.543
34.471
34.426
34.382
34.314
34.228
34.137
34.041
33.938
33.816
33.664
33.503
33.348
33.2
33.076
32.988
32.998
33.351
34.409
36.291
38.659
40.908
42.557
43.39
43.433
42.9
42.074
41.176
40.325
39.58
38.96
38.47
38.099
37.873
37.843
38.014
38.314
38.661
38.95
39.07
38.953
38.635
38.195
37.689
37.177
36.704
36.275
35.873
35.497
35.169
34.891
34.673
34.527
34.436
34.347
34.248
34.176
34.122
34.036
33.905
33.779
33.664
33.562
33.467
33.36
33.226
33.092
32.984
32.881
32.764
32.643
32.53
32.487
32.772
33.76
35.594
37.979
40.326
42.1
43.048
43.2
42.751
41.936
40.978
40.069
39.293
38.64
38.065
37.566
37.23
37.149
37.338
37.723
38.185
38.573
38.785
38.794
38.593
38.229
37.758
37.229
36.675
36.136
35.668
35.278
34.943
34.67
34.462
34.319
34.223
34.145
34.067
34.01
33.989
33.961
33.903
33.826
33.76
33.726
33.696
33.614
33.454
33.269
33.124
33.017
32.933
32.911
33.123
33.909
35.474
37.611
39.79
41.483
42.412
42.57
42.144
41.373
40.437
39.484
38.593
37.777
37.066
36.516
36.209
36.203
36.473
36.944
37.499
37.999
38.31
38.365
38.196
37.863
37.412
36.889
36.352
35.833
35.381
34.993
34.652
34.366
34.156
34.025
33.94
33.897
33.894
33.915
33.928
33.919
33.888
33.822
33.736
33.654
33.564
33.466
33.526
34.092
35.412
37.337
39.404
41.102
42.124
42.441
42.183
41.536
40.673
39.722
38.788
37.959
37.247
36.637
36.202
36.038
36.173
36.587
37.161
37.722
38.105
38.237
38.124
37.817
37.389
36.898
36.372
35.847
35.363
34.903
34.499
34.182
33.936
33.758
33.665
33.62
33.602
33.618
33.652
33.683
33.71
33.712
33.673
33.603
33.528
33.447
33.345
33.249
33.336
33.966
35.453
37.709
40.22
42.373
43.79
44.385
44.27
43.633
42.707
41.716
40.805
40.017
39.353
38.803
38.376
38.122
38.102
38.315
38.675
39.066
39.367
39.5
39.43
39.162
38.749
38.255
37.695
37.101
36.552
36.084
35.678
35.31
34.991
34.727
34.525
34.386
34.314
34.294
34.294
34.281
34.264
34.232
34.165
34.07
33.962
33.848
33.741
33.636
33.578
33.834
34.802
36.634
39.024
41.392
43.201
44.191
44.361
43.904
43.095
42.138
41.154
40.26
39.527
38.921
38.41
38.053
37.939
38.079
38.398
38.768
39.074
39.236
39.206
38.985
38.618
38.165
37.662
37.127
36.575
36.046
35.583
35.209
34.911
34.674
34.493
34.373
34.314
34.28
34.233
34.175
34.11
34.044
33.984
33.922
33.857
33.772
33.643
33.474
33.285
33.129
33.08
33.408
34.489
36.433
38.894
41.267
43.04
43.955
44.048
43.531
42.663
41.67
40.705
39.854
39.13
38.495
37.974
37.664
37.616
37.833
38.232
38.673
39.012
39.137
39.024
38.713
38.267
37.758
37.227
36.669
36.122
35.619
35.169
34.796
34.525
34.332
34.189
34.093
34.032
33.989
33.967
33.965
33.951
33.923
33.893
33.841
33.774
33.67
33.533
33.387
33.212
33.011
32.851
32.811
33.13
34.184
36.079
38.494
40.841
42.568
43.429
43.501
43.007
42.168
41.169
40.16
39.222
38.396
37.694
37.168
36.915
36.996
37.357
37.889
38.44
38.846
39.0
38.904
38.626
38.225
37.742
37.2
36.638
36.095
35.587
35.163
34.831
34.569
34.328
34.115
33.958
33.905
33.931
33.973
33.991
33.998
33.997
33.958
33.869
33.77
33.687
33.605
33.48
33.3
33.097
32.908
32.873
33.301
34.537
36.623
39.116
41.359
42.876
43.541
43.481
42.911
42.045
41.064
40.104
39.231
38.441
37.729
37.17
36.892
36.951
37.314
37.851
38.388
38.767
38.898
38.79
38.501
38.083
37.585
37.044
36.472
35.91
35.412
35.005
34.674
34.409
34.192
34.025
33.933
33.894
33.867
33.832
33.818
33.848
33.859
33.783
33.646
33.527
33.452
33.389
33.308
33.194
33.05
32.885
32.712
32.557
32.505
32.771
33.733
35.611
38.142
40.738
42.8
43.994
44.293
43.9
43.094
42.097
41.024
39.984
39.069
38.297
37.656
37.218
37.07
37.244
37.69
38.253
38.753
39.06
39.115
38.94
38.604
38.148
37.608
37.028
36.457
35.938
35.466
35.044
34.686
34.387
34.166
34.042
33.988
33.949
33.897
33.854
33.852
33.878
33.855
33.772
33.668
33.583
33.533
33.466
33.344
33.183
32.995
32.819
32.67
32.608
32.823
33.684
35.447
37.904
40.444
42.464
43.656
44.012
43.705
42.943
41.906
40.773
39.681
38.722
37.896
37.225
36.746
36.555
36.718
37.189
37.814
38.408
38.822
38.974
38.867
38.545
38.071
37.496
36.906
36.347
35.817
35.305
34.841
34.465
34.169
33.955
33.821
33.746
33.72
33.729
33.761
33.792
33.801
33.764
33.702
33.642
33.597
33.563
33.51
33.406
33.233
33.021
32.82
32.677
32.769
33.429
34.949
37.196
39.632
41.672
42.939
43.371
43.13
42.439
41.481
40.413
39.352
38.368
37.478
36.7
36.123
35.885
36.048
36.571
37.29
38.0
38.531
38.754
38.678
38.421
38.025
37.513
36.942
36.364
35.8
35.293
34.845
34.464
34.19
34.028
33.936
33.887
33.857
33.863
33.933
34.02
34.073
34.091
34.061
33.974
33.84
33.688
33.543
33.443
33.539
34.189
35.641
37.727
39.935
41.723
42.793
43.131
42.879
42.214
41.298
40.257
39.184
38.166
37.279
36.562
36.059
35.856
36.025
36.54
37.243
37.946
38.479
38.711
38.631
38.311
37.847
37.316
36.767
36.214
35.675
35.179
34.738
34.369
34.109
33.942
33.823
33.752
33.75
33.781
33.812
33.844
33.89
33.919
33.897
33.826
33.725
33.597
33.495
33.629
34.388
36.031
38.389
40.899
42.96
44.24
44.701
44.477
43.798
42.871
41.85
40.841
39.902
39.063
38.34
37.78
37.483
37.514
37.834
38.343
38.891
39.314
39.489
39.404
39.117
38.706
38.188
37.572
36.929
36.318
35.775
35.319
34.939
34.62
34.369
34.182
34.069
34.041
34.082
34.133
34.171
34.2
34.225
34.218
34.154
34.028
33.872
33.733
33.677
33.963
34.977
36.851
39.285
41.69
43.515
44.515
44.752
44.422
43.7
42.763
41.758
40.806
39.963
39.24
38.647
38.23
38.076
38.198
38.53
38.96
39.361
39.61
39.645
39.447
39.051
38.512
37.898
37.296
36.75
36.255
35.788
35.344
34.955
34.666
34.484
34.362
34.267
34.202
34.186
34.189
34.174
34.134
34.084
34.043
33.998
33.912
33.755
33.547
33.428
33.694
34.712
36.603
39.029
41.407
43.212
44.188
44.369
43.929
43.119
42.139
41.141
40.249
39.479
38.803
38.23
37.828
37.694
37.855
38.238
38.71
39.117
39.34
39.325
39.081
38.683
38.201
37.645
37.05
36.49
35.989
35.542
35.141
34.803
34.556
34.389
34.282
34.19
34.122
34.103
34.106
34.094
34.062
34.009
33.946
33.876
33.773
33.616
33.416
33.222
33.182
33.588
34.788
36.821
39.283
41.562
43.174
43.939
43.968
43.485
42.681
41.701
40.666
39.675
38.799
38.066
37.522
37.238
37.281
37.658
38.238
38.81
39.185
39.289
39.155
38.836
38.402
37.891
37.329
36.74
36.168
35.668
35.248
34.88
34.544
34.292
34.155
34.114
34.117
34.11
34.081
34.071
34.088
34.084
34.021
33.922
33.823
33.742
33.633
33.47
33.258
33.056
32.979
33.303
34.381
36.3
38.715
41.001
42.645
43.451
43.491
42.951
42.061
41.031
39.98
38.961
38.004
37.148
36.474
36.142
36.261
36.782
37.503
38.21
38.731
38.961
38.866
38.523
38.051
37.518
36.936
36.328
35.74
35.207
34.755
34.391
34.102
33.894
33.776
33.735
33.752
33.799
33.854
33.887
33.897
33.885
33.827
33.694
33.502
33.311
33.182
33.284
33.936
35.396
37.54
39.856
41.776
42.939
43.277
42.967
42.26
41.31
40.234
39.137
38.096
37.15
36.373
35.912
35.857
36.201
36.828
37.548
38.168
38.562
38.65
38.462
38.056
37.514
36.888
36.241
35.635
35.076
34.566
34.138
33.828
33.618
33.514
33.508
33.547
33.581
33.581
33.58
33.577
33.528
33.442
33.355
33.361
33.696
34.711
36.563
38.933
41.251
43.01
43.968
44.183
43.825
43.086
42.142
41.105
40.051
39.037
38.072
37.24
36.691
36.553
36.852
37.457
38.152
38.731
39.046
39.043
38.768
38.324
37.796
37.22
36.599
35.96
35.376
34.889
34.492
34.179
33.959
33.828
33.763
33.745
33.773
33.831
33.864
33.829
33.748
33.662
33.621
33.766
34.435
35.932
38.155
40.6
42.712
44.119
44.71
44.579
43.924
42.961
41.887
40.843
39.876
38.982
38.183
37.592
37.343
37.455
37.838
38.369
38.867
39.168
39.21
39.01
38.615
38.07
37.443
36.8
36.154
35.552
35.067
34.686
34.374
34.108
33.894
33.737
33.65
33.62
33.627
33.666
33.716
33.712
33.634
33.507
33.367
33.257
33.333
33.974
35.52
37.895
40.583
42.922
44.475
45.126
44.985
44.3
43.331
42.265
41.24
40.336
39.55
38.865
38.317
38.004
37.987
38.234
38.611
38.965
39.154
39.129
38.907
38.529
38.027
37.426
36.774
36.138
35.532
34.969
34.479
34.105
33.84
33.627
33.454
33.357
33.335
33.352
33.367
33.388
33.421
33.412
33.343
33.252
33.15
32.996
32.779
32.541
32.332
32.247
32.635
33.971
36.333
39.222
41.899
43.796
44.742
44.845
44.326
43.405
42.28
41.143
40.147
39.313
38.607
38.039
37.67
37.574
37.741
38.085
38.497
38.844
39.021
38.964
38.657
38.154
37.558
36.928
36.264
35.624
35.064
34.585
34.177
33.834
33.58
33.415
33.28
33.169
33.143
33.18
33.209
33.236
33.259
33.261
33.267
33.243
33.118
32.9
32.632
32.369
32.269
32.657
33.934
36.193
38.979
41.551
43.37
44.254
44.29
43.71
42.763
41.645
40.499
39.428
38.492
37.72
37.129
36.792
36.767
37.06
37.556
38.077
38.472
38.649
38.573
38.272
37.812
37.25
36.62
35.97
35.363
34.828
34.369
33.981
33.679
33.454
33.282
33.167
33.119
33.113
33.145
33.215
33.296
33.318
33.271
33.185
33.069
32.906
32.699
32.456
32.284
32.515
33.58
35.645
38.328
40.919
42.807
43.738
43.798
43.244
42.312
41.181
40.002
38.885
37.884
37.001
36.289
35.867
35.844
36.207
36.828
37.521
38.072
38.363
38.41
38.229
37.836
37.264
36.622
35.967
35.306
34.687
34.146
33.72
33.416
33.198
33.061
33.003
32.992
33.006
33.042
33.078
33.117
33.165
33.187
33.178
33.147
33.069
32.914
32.7
32.459
32.282
32.436
33.373
35.321
37.956
40.567
42.502
43.458
43.524
42.959
42.013
40.863
39.627
38.404
37.272
36.253
35.431
34.966
34.989
35.494
36.312
37.192
37.913
38.337
38.428
38.208
37.762
37.199
36.583
35.931
35.292
34.706
34.194
33.766
33.43
33.201
33.056
32.988
32.989
33.056
33.152
33.221
33.259
33.249
33.179
33.077
32.992
33.046
33.538
34.782
36.793
39.174
41.321
42.767
43.359
43.204
42.511
41.51
40.35
39.133
37.944
36.818
35.803
35.014
34.617
34.732
35.338
36.228
37.148
37.851
38.216
38.257
38.043
37.639
37.127
36.538
35.914
35.301
34.71
34.165
33.706
33.37
33.151
33.03
33.009
33.05
33.097
33.128
33.155
33.167
33.168
33.15
33.099
33.13
33.584
34.885
37.107
39.762
42.14
43.733
44.414
44.323
43.646
42.571
41.308
40.039
38.877
37.818
36.832
36.027
35.563
35.601
36.158
37.028
37.927
38.624
38.986
38.994
38.734
38.293
37.745
37.119
36.448
35.793
35.208
34.707
34.3
33.984
33.737
33.573
33.512
33.492
33.492
33.538
33.618
33.696
33.743
33.725
33.657
33.546
33.476
33.759
34.851
36.946
39.683
42.362
44.363
45.425
45.614
45.136
44.21
43.057
41.836
40.665
39.644
38.783
38.072
37.592
37.444
37.66
38.168
38.81
39.405
39.784
39.862
39.658
39.227
38.639
37.967
37.273
36.604
36.015
35.51
35.073
34.718
34.457
34.279
34.19
34.177
34.213
34.283
34.331
34.363
34.371
34.33
34.223
34.061
33.895
33.841
34.18
35.314
37.383
40.009
42.522
44.373
45.322
45.432
44.922
44.017
42.881
41.696
40.624
39.713
38.925
38.257
37.823
37.739
38.003
38.463
38.967
39.398
39.632
39.618
39.381
38.966
38.416
37.775
37.11
36.472
35.893
35.41
35.034
34.741
34.503
34.31
34.174
34.118
34.133
34.161
34.172
34.148
34.076
33.951
33.789
33.653
33.698
34.251
35.591
37.683
40.081
42.204
43.651
44.279
44.141
43.417
42.326
41.109
39.966
38.991
38.178
37.501
36.988
36.73
36.77
37.1
37.617
38.17
38.589
38.766
38.676
38.345
37.85
37.263
36.644
36.025
35.458
34.936
34.461
34.077
33.812
33.672
33.642
33.644
33.644
33.608
33.526
33.424
33.34
33.329
33.547
34.302
35.793
37.885
40.13
42.008
43.168
43.528
43.199
42.4
41.345
40.211
39.101
38.076
37.159
36.393
35.857
35.679
35.912
36.459
37.124
37.728
38.118
38.232
38.081
37.708
37.21
36.653
36.049
35.439
34.85
34.331
33.888
33.54
33.315
33.167
33.063
32.99
32.916
32.846
32.812
32.844
33.117
33.982
35.659
37.933
40.252
42.066
43.115
43.375
42.953
42.061
40.909
39.665
38.478
37.404
36.462
35.716
35.261
35.217
35.584
36.217
36.903
37.465
37.825
37.932
37.756
37.354
36.799
36.164
35.518
34.903
34.351
33.89
33.564
33.336
33.133
32.955
32.823
32.732
32.692
32.71
32.748
32.779
32.958
33.641
35.152
37.394
39.856
41.928
43.192
43.551
43.173
42.31
41.211
40.016
38.806
37.639
36.577
35.697
35.114
34.954
35.237
35.878
36.641
37.303
37.727
37.869
37.757
37.448
36.987
36.429
35.807
35.18
34.587
34.052
33.59
33.214
32.945
32.769
32.647
32.582
32.565
32.578
32.58
32.523
32.427
32.384
32.529
33.159
34.632
36.921
39.493
41.726
43.185
43.748
43.543
42.787
41.686
40.406
39.099
37.874
36.764
35.819
35.181
34.986
35.278
35.931
36.723
37.43
37.897
38.061
37.967
37.646
37.143
36.52
35.833
35.134
34.481
33.911
33.446
33.091
32.823
32.636
32.561
32.575
32.612
32.638
32.645
32.614
32.56
32.604
32.963
33.979
35.846
38.294
40.714
42.534
43.473
43.574
43.023
42.034
40.793
39.465
38.174
36.995
35.954
35.12
34.655
34.707
35.235
36.027
36.844
37.496
37.885
37.964
37.746
37.3
36.718
36.077
35.415
34.765
34.168
33.665
33.274
33.003
32.816
32.651
32.501
32.409
32.39
32.394
32.388
32.446
32.842
33.992
36.04
38.59
40.994
42.741
43.606
43.63
43.021
42.01
40.756
39.387
38.045
36.823
35.744
34.926
34.531
34.635
35.169
35.945
36.74
37.36
37.717
37.801
37.627
37.238
36.685
36.029
35.346
34.706
34.151
33.687
33.311
33.03
32.825
32.661
32.534
32.433
32.366
32.334
32.324
32.399
32.806
33.958
36.032
38.678
41.22
43.065
43.98
44.019
43.387
42.334
41.059
39.714
38.395
37.154
36.059
35.236
34.847
34.947
35.453
36.178
36.924
37.537
37.863
37.872
37.645
37.23
36.667
36.017
35.335
34.693
34.13
33.638
33.212
32.88
32.644
32.477
32.391
32.419
32.492
32.557
32.587
32.552
32.481
32.51
32.991
34.362
36.686
39.46
41.962
43.698
44.496
44.442
43.737
42.627
41.311
39.954
38.711
37.631
36.681
35.927
35.498
35.51
35.962
36.67
37.383
37.934
38.202
38.167
37.882
37.409
36.795
36.097
35.387
34.71
34.101
33.594
33.228
32.979
32.8
32.657
32.552
32.504
32.514
32.531
32.547
32.579
32.602
32.587
32.529
32.441
32.479
33.101
34.749
37.338
40.262
42.788
44.457
45.133
44.925
44.106
42.957
41.682
40.43
39.299
38.349
37.571
36.975
36.669
36.708
37.028
37.482
37.94
38.283
38.433
38.351
38.03
37.531
36.919
36.239
35.564
34.948
34.378
33.824
33.341
32.981
32.72
32.528
32.417
32.383
32.402
32.439
32.489
32.525
32.536
32.525
32.5
32.462
32.394
32.288
32.139
31.934
31.728
31.817
32.739
34.786
37.662
40.667
43.088
44.54
45.021
44.714
43.851
42.651
41.318
40.027
38.864
37.851
37.014
36.438
36.217
36.381
36.834
37.41
37.943
38.306
38.424
38.288
37.953
37.469
36.862
36.179
35.492
34.844
34.244
33.719
33.301
32.99
32.761
32.593
32.465
32.391
32.385
32.423
32.477
32.517
32.517
32.485
32.442
32.427
32.415
32.333
32.141
31.875
31.619
31.417
31.351
31.752
33.12
35.55
38.525
41.31
43.344
44.397
44.53
43.974
42.987
41.759
40.442
39.147
37.926
36.834
35.988
35.514
35.504
35.901
36.534
37.245
37.872
38.263
38.348
38.155
37.754
37.209
36.583
35.917
35.253
34.625
34.052
33.562
33.177
32.883
32.681
32.585
32.557
32.563
32.572
32.564
32.563
32.585
32.611
32.622
32.621
32.593
32.512
32.368
32.184
31.985
31.776
31.608
31.732
32.608
34.538
37.28
40.13
42.386
43.7
44.098
43.771
42.952
41.825
40.534
39.203
37.939
36.789
35.805
35.108
34.855
35.111
35.78
36.632
37.437
38.022
38.291
38.224
37.91
37.44
36.879
36.243
35.551
34.868
34.263
33.749
33.346
33.041
32.807
32.629
32.529
32.497
32.519
32.582
32.644
32.682
32.717
32.761
32.785
32.774
32.733
32.647
32.503
32.322
32.145
32.116
32.611
34.05
36.42
39.17
41.566
43.121
43.759
43.626
42.95
41.952
40.77
39.479
38.173
36.919
35.789
34.906
34.451
34.558
35.185
36.131
37.103
37.849
38.255
38.333
38.131
37.717
37.188
36.625
36.045
35.428
34.789
34.171
33.654
33.297
33.067
32.913
32.794
32.694
32.646
32.651
32.7
32.786
32.879
32.958
32.996
32.966
32.866
32.748
32.651
32.752
33.372
34.785
36.881
39.169
41.098
42.299
42.701
42.429
41.698
40.716
39.602
38.42
37.186
35.933
34.773
33.924
33.614
33.929
34.742
35.77
36.719
37.389
37.717
37.747
37.541
37.159
36.646
36.054
35.459
34.915
34.412
33.934
33.521
33.22
33.025
32.892
32.793
32.729
32.73
32.788
32.871
32.915
32.886
32.815
32.827
33.195
34.243
36.061
38.339
40.516
42.134
42.987
43.107
42.657
41.795
40.677
39.437
38.169
36.941
35.799
34.843
34.256
34.188
34.671
35.554
36.545
37.369
37.891
38.107
38.056
37.804
37.401
36.9
36.313
35.709
35.142
34.635
34.197
33.812
33.494
33.278
33.152
33.088
33.076
33.095
33.14
33.189
33.234
33.304
33.637
34.608
36.425
38.825
41.235
43.115
44.203
44.523
44.211
43.444
42.375
41.161
39.921
38.717
37.579
36.578
35.865
35.644
35.991
36.73
37.597
38.36
38.898
39.13
39.034
38.687
38.22
37.695
37.092
36.433
35.804
35.262
34.815
34.435
34.112
33.869
33.71
33.628
33.611
33.634
33.675
33.722
33.766
33.766
33.749
33.808
34.165
35.188
37.08
39.6
42.141
44.143
45.304
45.621
45.277
44.486
43.429
42.216
40.961
39.81
38.79
37.928
37.343
37.156
37.414
37.992
38.661
39.216
39.542
39.632
39.503
39.16
38.631
37.993
37.312
36.629
35.985
35.426
34.944
34.523
34.189
33.953
33.811
33.746
33.723
33.732
33.796
33.891
33.954
33.928
33.819
33.675
33.623
33.961
35.06
37.03
39.543
42.035
43.984
45.093
45.352
44.951
44.109
43.016
41.85
40.757
39.787
38.924
38.191
37.675
37.486
37.67
38.116
38.644
39.089
39.336
39.35
39.14
38.75
38.212
37.591
36.948
36.295
35.674
35.132
34.667
34.276
33.99
33.817
33.716
33.654
33.603
33.558
33.569
33.629
33.693
33.728
33.69
33.578
33.396
33.186
33.027
33.121
33.856
35.517
37.934
40.557
42.764
44.208
44.807
44.662
43.967
42.969
41.85
40.729
39.694
38.78
38.022
37.479
37.214
37.284
37.686
38.267
38.79
39.11
39.16
38.954
38.558
38.014
37.385
36.742
36.109
35.519
34.991
34.524
34.138
33.86
33.681
33.609
33.606
33.594
33.548
33.508
33.494
33.482
33.467
33.448
33.401
33.337
33.235
33.089
32.918
32.745
32.585
32.423
32.341
32.659
33.838
36.042
38.853
41.548
43.573
44.658
44.842
44.351
43.447
42.336
41.155
40.017
38.979
38.088
37.403
37.02
37.004
37.344
37.889
38.447
38.878
39.089
39.044
38.742
38.267
37.686
37.066
36.444
35.821
35.212
34.675
34.255
33.954
33.752
33.63
33.548
33.503
33.491
33.51
33.57
33.646
33.695
33.682
33.604
33.478
33.315
33.143
32.973
32.788
32.586
32.38
32.298
32.625
33.753
35.808
38.438
41.007
42.972
44.076
44.331
43.895
42.984
41.833
40.652
39.504
38.411
37.429
36.647
36.224
36.245
36.66
37.301
37.963
38.467
38.711
38.683
38.43
38.002
37.445
36.784
36.08
35.4
34.793
34.273
33.86
33.553
33.35
33.232
33.162
33.129
33.107
33.097
33.114
33.161
33.204
33.222
33.216
33.173
33.091
32.952
32.765
32.561
32.376
32.261
32.405
33.182
34.89
37.328
39.924
42.064
43.403
43.9
43.681
42.928
41.82
40.544
39.259
38.054
36.957
36.035
35.44
35.302
35.656
36.383
37.23
37.97
38.437
38.554
38.355
37.939
37.395
36.782
36.148
35.514
34.917
34.364
33.886
33.495
33.215
33.067
33.002
32.977
32.964
32.974
33.032
33.109
33.188
33.256
33.259
33.174
33.014
32.838
32.675
32.619
32.966
34.091
36.073
38.507
40.789
42.45
43.312
43.428
42.953
42.061
40.919
39.669
38.403
37.181
36.083
35.222
34.737
34.773
35.314
36.172
37.094
37.829
38.243
38.325
38.112
37.689
37.135
36.508
35.843
35.17
34.551
34.014
33.544
33.178
32.953
32.865
32.844
32.843
32.882
32.958
33.019
33.016
32.954
32.898
32.935
33.266
34.234
35.997
38.331
40.691
42.555
43.615
43.842
43.428
42.591
41.474
40.22
38.934
37.673
36.488
35.482
34.811
34.662
35.064
35.879
36.845
37.695
38.272
38.522
38.44
38.074
37.548
36.945
36.3
35.645
35.01
34.438
33.982
33.626
33.361
33.211
33.149
33.141
33.158
33.146
33.116
33.087
33.06
33.035
33.154
33.771
35.243
37.533
40.121
42.365
43.835
44.417
44.258
43.569
42.531
41.303
40.009
38.732
37.524
36.432
35.598
35.223
35.392
36.016
36.883
37.77
38.447
38.797
38.775
38.44
37.929
37.33
36.687
36.013
35.346
34.75
34.258
33.856
33.538
33.32
33.207
33.187
33.218
33.246
33.263
33.256
33.226
33.211
33.273
33.638
34.719
36.748
39.474
42.257
44.481
45.819
46.241
45.908
45.038
43.855
42.571
41.353
40.274
39.338
38.533
37.922
37.636
37.736
38.147
38.706
39.229
39.571
39.653
39.492
39.123
38.553
37.849
37.115
36.403
35.748
35.15
34.617
34.163
33.808
33.569
33.449
33.4
33.39
33.439
33.534
33.606
33.641
33.624
33.549
33.417
33.341
33.641
34.738
36.801
39.491
42.156
44.221
45.413
45.751
45.374
44.509
43.375
42.143
40.987
40.026
39.256
38.613
38.12
37.875
37.94
38.251
38.664
39.049
39.297
39.331
39.1
38.633
38.007
37.321
36.637
35.985
35.362
34.784
34.287
33.914
33.643
33.453
33.303
33.201
33.187
33.243
33.328
33.4
33.417
33.376
33.288
33.174
33.043
32.888
32.807
33.128
34.306
36.484
39.256
41.922
43.873
44.867
45.0
44.475
43.51
42.339
41.163
40.083
39.122
38.276
37.565
37.089
36.972
37.232
37.737
38.266
38.662
38.861
38.826
38.55
38.052
37.403
36.702
36.007
35.383
34.824
34.344
33.937
33.576
33.312
33.174
33.118
33.099
33.092
33.086
33.118
33.206
33.293
33.291
33.207
33.092
32.952
32.784
32.582
32.36
32.225
32.507
33.657
35.827
38.616
41.324
43.331
44.368
44.503
43.946
42.956
41.768
40.552
39.403
38.353
37.43
36.711
36.296
36.279
36.658
37.289
37.939
38.434
38.687
38.676
38.417
37.941
37.327
36.658
35.995
35.372
34.78
34.242
33.791
33.453
33.237
33.116
33.066
33.07
33.097
33.124
33.154
33.194
33.226
33.223
33.178
33.11
33.024
32.884
32.684
32.459
32.319
32.519
33.482
35.448
38.111
40.77
42.783
43.844
44.005
43.488
42.517
41.303
40.018
38.782
37.661
36.694
35.937
35.523
35.54
35.965
36.674
37.461
38.108
38.478
38.517
38.256
37.812
37.284
36.677
36.001
35.323
34.71
34.187
33.779
33.474
33.239
33.067
32.958
32.915
32.935
32.992
33.071
33.149
33.208
33.229
33.205
33.116
32.981
32.83
32.684
32.652
33.074
34.347
36.503
39.088
41.414
42.957
43.571
43.388
42.638
41.554
40.311
39.035
37.832
36.762
35.838
35.152
34.863
35.071
35.7
36.558
37.398
38.012
38.274
38.208
37.9
37.414
36.821
36.178
35.537
34.92
34.331
33.808
33.393
33.098
32.887
32.739
32.66
32.675
32.759
32.888
33.018
33.093
33.106
33.066
32.995
32.907
32.792
32.678
32.7
33.225
34.623
36.827
39.311
41.417
42.717
43.137
42.844
42.081
41.03
39.834
38.602
37.404
36.287
35.32
34.655
34.463
34.811
35.605
36.607
37.524
38.145
38.41
38.363
38.071
37.597
36.997
36.325
35.641
34.996
34.423
33.939
33.559
33.31
33.197
33.157
33.16
33.209
33.266
33.289
33.252
33.198
33.196
33.259
33.488
34.198
35.657
37.759
40.002
41.821
42.889
43.151
42.734
41.85
40.717
39.488
38.233
37.012
35.891
34.939
34.324
34.24
34.717
35.592
36.602
37.491
38.093
38.329
38.234
37.892
37.372
36.753
36.105
35.474
34.88
34.352
33.921
33.589
33.357
33.236
33.211
33.232
33.242
33.214
33.157
33.104
33.109
33.257
33.829
35.198
37.37
39.905
42.158
43.678
44.306
44.11
43.31
42.165
40.864
39.544
38.309
37.192
36.215
35.493
35.194
35.44
36.17
37.135
38.026
38.639
38.911
38.873
38.584
38.087
37.469
36.815
36.153
35.493
34.885
34.349
33.916
33.65
33.516
33.447
33.426
33.453
33.517
33.58
33.595
33.555
33.549
33.732
34.456
36.075
38.501
41.162
43.376
44.759
45.231
44.931
44.087
42.952
41.708
40.466
39.317
38.294
37.431
36.794
36.515
36.694
37.238
37.959
38.649
39.13
39.328
39.228
38.858
38.294
37.619
36.906
36.192
35.517
34.937
34.46
34.08
33.801
33.63
33.538
33.473
33.45
33.491
33.581
33.671
33.713
33.693
33.612
33.583
33.944
35.112
37.213
39.889
42.481
44.421
45.45
45.566
44.99
43.98
42.773
41.565
40.473
39.546
38.772
38.132
37.687
37.55
37.745
38.165
38.661
39.094
39.319
39.254
38.913
38.401
37.802
37.167
36.496
35.796
35.131
34.57
34.159
33.863
33.643
33.486
33.391
33.345
33.341
33.385
33.446
33.466
33.451
33.445
33.414
33.292
33.079
32.901
33.03
33.86
35.659
38.213
40.919
43.147
44.525
44.976
44.641
43.779
42.627
41.374
40.173
39.128
38.27
37.595
37.152
37.013
37.18
37.565
38.038
38.469
38.742
38.774
38.555
38.152
37.612
36.977
36.298
35.634
35.032
34.503
34.023
33.62
33.331
33.16
33.058
33.001
32.993
33.038
33.112
33.176
33.217
33.229
33.185
33.072
32.909
32.709
32.489
32.293
32.204
32.477
33.568
35.693
38.49
41.242
43.309
44.392
44.543
43.987
42.991
41.789
40.53
39.324
38.228
37.277
36.547
36.152
36.162
36.546
37.167
37.805
38.292
38.524
38.474
38.187
37.728
37.165
36.503
35.784
35.1
34.514
34.025
33.633
33.332
33.107
32.962
32.905
32.915
32.955
32.993
33.007
33.007
33.014
33.033
33.043
33.014
32.933
32.784
32.56
32.295
32.033
31.856
31.904
32.555
34.219
36.807
39.732
42.275
43.929
44.565
44.346
43.522
42.339
41.014
39.713
38.501
37.391
36.447
35.816
35.635
35.916
36.538
37.327
38.037
38.487
38.635
38.494
38.112
37.536
36.847
36.135
35.456
34.811
34.208
33.697
33.32
33.074
32.914
32.8
32.736
32.731
32.779
32.848
32.914
32.973
33.023
33.043
33.028
32.952
32.821
32.652
32.472
32.287
32.085
31.923
32.039
32.88
34.801
37.544
40.381
42.662
44.037
44.46
44.098
43.193
41.983
40.623
39.213
37.844
36.637
35.72
35.197
35.147
35.562
36.305
37.151
37.899
38.393
38.567
38.426
38.029
37.465
36.795
36.068
35.34
34.668
34.083
33.602
33.235
32.952
32.741
32.625
32.575
32.582
32.648
32.768
32.889
32.973
33.023
33.033
32.99
32.903
32.767
32.588
32.394
32.241
32.281
32.944
34.616
37.168
39.957
42.28
43.732
44.25
43.996
43.2
42.049
40.697
39.294
37.951
36.722
35.659
34.902
34.655
34.997
35.804
36.802
37.676
38.254
38.504
38.454
38.142
37.623
36.977
36.27
35.557
34.878
34.244
33.691
33.249
32.888
32.619
32.47
32.42
32.432
32.486
32.553
32.621
32.714
32.809
32.879
32.904
32.865
32.74
32.565
32.453
32.664
33.634
35.592
38.229
40.856
42.864
43.948
44.159
43.721
42.822
41.623
40.252
38.85
37.506
36.286
35.308
34.725
34.664
35.155
36.062
37.091
37.963
38.505
38.678
38.5
38.07
37.518
36.908
36.242
35.549
34.888
34.289
33.769
33.368
33.105
32.949
32.866
32.849
32.894
32.985
33.091
33.173
33.197
33.164
33.092
33.04
33.154
33.724
35.082
37.181
39.541
41.575
42.885
43.381
43.174
42.424
41.297
39.944
38.518
37.138
35.86
34.761
34.03
33.857
34.289
35.186
36.277
37.265
37.956
38.275
38.266
38.008
37.558
36.961
36.273
35.564
34.897
34.326
33.877
33.54
33.324
33.197
33.106
33.02
32.954
32.918
32.902
32.892
32.915
33.158
33.979
35.627
37.928
40.361
42.352
43.545
43.867
43.472
42.599
41.413
40.054
38.653
37.257
35.915
34.779
34.075
33.984
34.549
35.561
36.704
37.68
38.313
38.564
38.473
38.12
37.603
37.002
36.353
35.681
35.039
34.462
34.009
33.68
33.444
33.284
33.196
33.159
33.15
33.16
33.188
33.27
33.574
34.493
36.327
38.91
41.642
43.879
45.262
45.731
45.419
44.543
43.299
41.906
40.548
39.284
38.114
37.088
36.364
36.141
36.472
37.232
38.162
38.976
39.491
39.661
39.522
39.126
38.548
37.859
37.086
36.303
35.614
35.043
34.569
34.205
33.951
33.803
33.761
33.781
33.825
33.875
33.881
33.865
33.964
34.44
35.671
37.822
40.573
43.28
45.333
46.438
46.631
46.098
45.09
43.851
42.566
41.371
40.35
39.495
38.799
38.341
38.207
38.377
38.763
39.224
39.615
39.834
39.832
39.6
39.15
38.502
37.757
36.984
36.22
35.531
34.967
34.527
34.222
34.025
33.907
33.849
33.846
33.898
33.956
33.973
33.932
33.849
33.753
33.74
34.051
35.102
37.089
39.732
42.411
44.514
45.697
45.935
45.432
44.464
43.296
42.122
41.069
40.188
39.452
38.837
38.39
38.206
38.303
38.599
38.981
39.295
39.432
39.321
38.968
38.428
37.773
37.098
36.443
35.814
35.221
34.691
34.249
33.912
33.692
33.584
33.552
33.566
33.605
33.642
33.678
33.688
33.632
33.534
33.423
33.297
33.134
32.928
32.714
32.576
32.82
33.921
36.092
38.974
41.859
44.101
45.354
45.585
45.027
44.006
42.785
41.595
40.576
39.73
39.032
38.482
38.132
38.027
38.156
38.441
38.777
39.044
39.145
39.025
38.672
38.11
37.41
36.672
35.959
35.308
34.753
34.307
33.962
33.713
33.554
33.462
33.425
33.432
33.458
33.477
33.464
33.444
33.409
33.347
33.261
33.143
32.997
32.835
32.668
32.519
32.375
32.212
32.001
31.808
31.726
32.066
33.286
35.598
38.617
41.597
43.87
45.116
45.349
44.802
43.781
42.553
41.319
40.206
39.273
38.503
37.896
37.525
37.472
37.729
38.183
38.644
38.958
39.038
38.873
38.52
38.025
37.41
36.714
36.005
35.341
34.761
34.306
33.966
33.702
33.5
33.379
33.338
33.33
33.317
33.281
33.257
33.24
33.222
33.17
33.079
32.966
32.851
32.74
32.618
32.468
32.296
32.124
31.942
31.761
31.596
31.516
31.73
32.649
34.593
37.373
40.324
42.721
44.196
44.704
44.367
43.411
42.134
40.785
39.53
38.441
37.5
36.752
36.3
36.247
36.591
37.199
37.874
38.442
38.759
38.758
38.459
37.942
37.304
36.603
35.89
35.193
34.554
34.02
33.632
33.393
33.245
33.151
33.091
33.094
33.159
33.25
33.326
33.373
33.396
33.4
33.359
33.229
33.002
32.747
32.517
32.318
32.157
32.169
32.728
34.187
36.459
39.015
41.218
42.665
43.228
43.016
42.246
41.127
39.868
38.615
37.415
36.258
35.235
34.589
34.513
34.983
35.772
36.624
37.344
37.775
37.854
37.636
37.206
36.624
35.968
35.313
34.673
34.049
33.502
33.085
32.798
32.604
32.492
32.463
32.519
32.631
32.78
32.924
33.006
32.996
32.907
32.788
32.662
32.543
32.511
32.838
33.923
35.905
38.442
40.909
42.74
43.687
43.776
43.189
42.167
40.909
39.57
38.253
37.036
35.968
35.135
34.719
34.847
35.455
36.365
37.318
38.045
38.412
38.386
38.036
37.469
36.788
36.073
35.348
34.636
33.997
33.485
33.107
32.858
32.707
32.634
32.625
32.645
32.673
32.709
32.732
32.7
32.628
32.532
32.474
32.671
33.558
35.414
38.04
40.816
43.076
44.47
44.926
44.585
43.701
42.492
41.125
39.735
38.433
37.26
36.267
35.624
35.482
35.854
36.586
37.421
38.132
38.564
38.626
38.355
37.853
37.202
36.452
35.673
34.924
34.237
33.639
33.159
32.794
32.549
32.43
32.419
32.477
32.556
32.647
32.751
32.861
32.919
32.882
32.792
32.685
32.638
32.877
33.849
35.874
38.712
41.668
44.032
45.406
45.779
45.337
44.365
43.124
41.815
40.598
39.529
38.593
37.795
37.208
36.939
37.042
37.445
37.984
38.48
38.807
38.894
38.71
38.275
37.662
36.937
36.158
35.37
34.64
34.015
33.521
33.159
32.903
32.722
32.601
32.565
32.635
32.751
32.869
32.944
32.963
32.917
32.815
32.694
32.636
32.894
33.925
36.015
38.866
41.744
43.955
45.171
45.423
44.938
43.966
42.75
41.481
40.287
39.238
38.33
37.547
36.966
36.713
36.832
37.235
37.752
38.23
38.54
38.595
38.379
37.949
37.347
36.657
35.953
35.253
34.577
33.943
33.416
33.031
32.789
32.655
32.613
32.635
32.682
32.744
32.797
32.828
32.846
32.845
32.804
32.705
32.578
32.577
33.096
34.575
37.013
39.828
42.315
43.996
44.707
44.559
43.808
42.713
41.476
40.24
39.096
38.08
37.206
36.522
36.129
36.109
36.456
37.031
37.657
38.147
38.369
38.291
37.969
37.477
36.888
36.232
35.549
34.868
34.18
33.562
33.072
32.721
32.498
32.382
32.343
32.357
32.426
32.529
32.603
32.621
32.598
32.537
32.487
32.574
33.081
34.411
36.645
39.329
41.751
43.383
44.044
43.84
43.018
41.862
40.588
39.3
38.075
36.979
36.035
35.292
34.883
34.965
35.51
36.303
37.108
37.736
38.042
37.987
37.639
37.101
36.452
35.769
35.105
34.458
33.84
33.304
32.87
32.542
32.315
32.18
32.137
32.154
32.183
32.191
32.186
32.26
32.617
33.576
35.361
37.782
40.256
42.18
43.255
43.463
42.998
42.068
40.827
39.439
38.071
36.78
35.573
34.548
33.9
33.803
34.285
35.184
36.198
37.066
37.618
37.801
37.663
37.283
36.74
36.105
35.426
34.768
34.148
33.565
33.047
32.648
32.397
32.264
32.181
32.093
32.015
31.98
32.036
32.355
33.291
35.098
37.594
40.167
42.185
43.308
43.512
42.989
42.001
40.769
39.421
38.04
36.698
35.45
34.377
33.674
33.558
34.091
35.086
36.212
37.176
37.782
37.952
37.725
37.237
36.644
36.002
35.307
34.594
33.948
33.401
32.972
32.653
32.407
32.227
32.101
32.017
31.987
31.997
32.053
32.322
33.211
35.017
37.556
40.158
42.16
43.251
43.44
42.92
41.905
40.606
39.191
37.779
36.437
35.187
34.131
33.475
33.438
34.049
35.098
36.237
37.137
37.656
37.785
37.571
37.126
36.564
35.943
35.309
34.677
34.066
33.512
33.051
32.714
32.491
32.36
32.3
32.264
32.247
32.243
32.287
32.549
33.38
35.031
37.326
39.679
41.471
42.391
42.486
41.972
41.047
39.883
38.594
37.247
35.919
34.705
33.732
33.194
33.271
33.943
34.984
36.073
36.928
37.418
37.534
37.342
36.949
36.438
35.858
35.231
34.622
34.086
33.63
33.254
32.993
32.819
32.686
32.537
32.403
32.328
32.37
32.698
33.673
35.515
37.946
40.342
42.112
42.963
42.944
42.302
41.3
40.118
38.86
37.601
36.376
35.255
34.352
33.882
34.017
34.719
35.733
36.711
37.431
37.808
37.834
37.596
37.211
36.726
36.163
35.564
34.991
34.479
34.035
33.666
33.364
33.147
33.015
32.919
32.834
32.801
32.863
33.229
34.313
36.304
38.871
41.342
43.119
43.947
43.881
43.154
42.062
40.828
39.613
38.522
37.531
36.578
35.741
35.257
35.317
35.894
36.747
37.574
38.176
38.46
38.449
38.211
37.804
37.274
36.671
36.05
35.465
34.956
34.538
34.203
33.933
33.689
33.487
33.383
33.381
33.451
33.514
33.515
33.535
33.868
34.967
37.04
39.682
42.144
43.84
44.587
44.509
43.85
42.835
41.674
40.514
39.433
38.48
37.661
37.015
36.666
36.696
37.08
37.686
38.321
38.808
39.042
38.997
38.704
38.232
37.66
37.06
36.46
35.884
35.324
34.809
34.39
34.085
33.874
33.742
33.674
33.647
33.658
33.683
33.714
33.729
33.708
33.763
34.199
35.388
37.406
39.839
42.033
43.511
44.146
44.009
43.297
42.263
41.114
39.981
38.978
38.161
37.526
37.049
36.791
36.852
37.218
37.756
38.299
38.67
38.773
38.614
38.274
37.809
37.24
36.613
35.99
35.415
34.897
34.433
34.066
33.814
33.643
33.525
33.465
33.458
33.486
33.527
33.559
33.572
33.567
33.516
33.404
33.25
33.066
32.904
32.941
33.613
35.272
37.746
40.383
42.478
43.649
43.871
43.387
42.469
41.348
40.209
39.159
38.232
37.427
36.782
36.386
36.343
36.655
37.205
37.83
38.331
38.574
38.551
38.314
37.902
37.354
36.729
36.1
35.518
34.99
34.517
34.108
33.792
33.577
33.427
33.334
33.305
33.309
33.334
33.38
33.43
33.456
33.459
33.434
33.359
33.23
33.032
32.799
32.578
32.399
32.418
33.037
34.643
37.099
39.77
41.951
43.23
43.552
43.109
42.165
40.984
39.777
38.674
37.71
36.848
36.112
35.66
35.632
36.003
36.624
37.301
37.86
38.18
38.217
38.001
37.599
37.075
36.474
35.832
35.198
34.629
34.14
33.709
33.356
33.099
32.928
32.865
32.872
32.889
32.929
33.019
33.105
33.141
33.146
33.131
33.068
32.947
32.795
32.636
32.483
32.348
32.391
33.003
34.515
36.797
39.241
41.195
42.319
42.587
42.171
41.306
40.21
39.055
37.898
36.75
35.674
34.832
34.42
34.541
35.168
36.122
37.143
37.981
38.468
38.586
38.409
38.04
37.57
37.035
36.466
35.923
35.475
35.137
34.854
34.603
34.403
34.29
34.281
34.341
34.426
34.484
34.505
34.518
34.571
34.773
35.334
36.461
38.101
39.934
41.522
42.543
42.884
42.615
41.91
40.949
39.881
38.781
37.673
36.638
35.852
35.498
35.677
36.307
37.158
37.999
38.666
39.052
39.117
38.913
38.522
38.009
37.431
36.83
36.257
35.753
35.356
35.058
34.835
34.68
34.591
34.526
34.412
34.27
34.168
34.135
34.236
34.769
36.083
38.149
40.52
42.586
43.924
44.428
44.195
43.4
42.225
40.877
39.551
38.367
37.379
36.606
36.085
35.893
36.114
36.716
37.536
38.344
38.959
39.254
39.217
38.91
38.397
37.728
37.0
36.314
35.708
35.178
34.758
34.449
34.231
34.08
33.992
33.932
33.875
33.823
33.77
33.736
33.808
34.276
35.499
37.563
40.102
42.464
44.112
44.835
44.717
43.954
42.765
41.378
40.03
38.885
37.982
37.285
36.791
36.563
36.666
37.085
37.702
38.336
38.796
39.01
38.964
38.687
38.199
37.547
36.819
36.122
35.498
34.956
34.505
34.149
33.893
33.704
33.575
33.501
33.469
33.476
33.506
33.539
33.556
33.53
33.453
33.379
33.478
34.126
35.658
37.992
40.609
42.887
44.36
44.866
44.535
43.62
42.382
41.046
39.784
38.731
37.951
37.396
37.029
36.898
37.053
37.441
37.953
38.443
38.758
38.827
38.645
38.239
37.674
37.032
36.363
35.706
35.104
34.583
34.17
33.845
33.59
33.398
33.264
33.207
33.198
33.185
33.162
33.167
33.182
33.17
33.12
33.05
32.947
32.817
32.654
32.436
32.197
32.003
32.021
32.629
34.223
36.717
39.549
42.05
43.729
44.412
44.197
43.324
42.069
40.709
39.459
38.454
37.71
37.142
36.714
36.509
36.595
36.946
37.452
37.959
38.31
38.401
38.228
37.828
37.284
36.668
36.026
35.39
34.796
34.302
33.961
33.72
33.542
33.417
33.325
33.239
33.166
33.133
33.135
33.166
33.194
33.213
33.196
33.13
33.045
32.941
32.813
32.677
32.542
32.399
32.25
32.108
31.963
31.815
31.702
31.757
32.322
33.818
36.241
39.074
41.611
43.305
43.975
43.765
42.959
41.816
40.532
39.28
38.196
37.379
36.843
36.543
36.487
36.707
37.16
37.752
38.346
38.767
38.913
38.785
38.411
37.854
37.212
36.541
35.885
35.289
34.777
34.359
34.031
33.773
33.559
33.386
33.257
33.193
33.221
33.338
33.506
33.673
33.789
33.797
33.679
33.484
33.304
33.154
33.009
32.873
32.732
32.525
32.263
32.015
31.831
31.821
32.35
33.831
36.215
38.939
41.295
42.822
43.392
43.148
42.347
41.227
39.969
38.726
37.64
36.791
36.148
35.712
35.551
35.705
36.139
36.74
37.366
37.864
38.148
38.185
37.987
37.561
36.963
36.311
35.694
35.122
34.607
34.148
33.755
33.475
33.289
33.138
33.036
33.012
33.024
33.035
33.044
33.063
33.086
33.097
33.085
33.037
32.957
32.838
32.702
32.57
32.442
32.297
32.154
32.082
32.31
33.225
35.037
37.486
39.948
41.841
42.883
43.051
42.522
41.538
40.317
39.054
37.893
36.906
36.094
35.443
35.026
34.982
35.362
36.069
36.912
37.69
38.209
38.385
38.241
37.844
37.292
36.677
36.033
35.39
34.819
34.371
34.015
33.677
33.373
33.196
33.163
33.211
33.269
33.308
33.355
33.408
33.466
33.526
33.555
33.54
33.47
33.343
33.173
32.992
32.841
32.861
33.35
34.624
36.638
38.94
40.941
42.213
42.624
42.3
41.488
40.396
39.181
37.968
36.842
35.869
35.108
34.634
34.532
34.839
35.53
36.443
37.332
37.996
38.351
38.398
38.163
37.688
37.065
36.408
35.783
35.21
34.702
34.246
33.869
33.607
33.444
33.356
33.327
33.343
33.39
33.473
33.559
33.626
33.651
33.631
33.606
33.562
33.485
33.378
33.248
33.157
33.347
34.206
35.938
38.249
40.525
42.214
43.091
43.176
42.627
41.616
40.335
39.008
37.762
36.661
35.747
35.039
34.632
34.665
35.179
36.026
36.969
37.785
38.307
38.48
38.36
38.029
37.561
37.02
36.441
35.847
35.298
34.841
34.478
34.172
33.903
33.68
33.524
33.438
33.421
33.453
33.505
33.579
33.655
33.685
33.632
33.511
33.384
33.33
33.551
34.387
36.023
38.214
40.381
42.02
42.914
43.062
42.59
41.671
40.488
39.187
37.922
36.804
35.851
35.082
34.598
34.531
34.958
35.794
36.792
37.715
38.381
38.701
38.687
38.414
37.945
37.354
36.693
36.035
35.415
34.842
34.354
33.981
33.711
33.553
33.487
33.471
33.471
33.482
33.532
33.626
33.717
33.753
33.727
33.646
33.548
33.529
33.814
34.747
36.47
38.716
40.921
42.561
43.406
43.476
42.928
41.967
40.773
39.484
38.218
37.057
36.05
35.262
34.825
34.875
35.421
36.312
37.314
38.186
38.735
38.936
38.843
38.533
38.078
37.508
36.865
36.217
35.616
35.08
34.595
34.196
33.905
33.697
33.576
33.546
33.58
33.655
33.746
33.823
33.862
33.867
33.848
33.787
33.731
33.849
34.522
36.057
38.277
40.651
42.609
43.793
44.124
43.723
42.806
41.597
40.259
38.933
37.73
36.694
35.87
35.334
35.202
35.557
36.349
37.344
38.261
38.92
39.214
39.174
38.882
38.417
37.851
37.223
36.578
35.926
35.293
34.755
34.345
34.048
33.845
33.738
33.688
33.674
33.703
33.778
33.881
33.97
34.02
34.03
34.003
33.927
33.817
33.799
34.17
35.354
37.452
40.015
42.337
43.921
44.593
44.445
43.7
42.597
41.293
39.912
38.606
37.467
36.516
35.836
35.545
35.712
36.322
37.205
38.106
38.832
39.263
39.343
39.12
38.649
38.016
37.323
36.638
35.996
35.425
34.917
34.474
34.121
33.88
33.743
33.662
33.627
33.632
33.672
33.757
33.871
33.96
33.97
33.911
33.795
33.642
33.544
33.768
34.703
36.548
38.996
41.421
43.261
44.229
44.343
43.774
42.753
41.489
40.122
38.791
37.605
36.59
35.8
35.354
35.368
35.869
36.734
37.736
38.603
39.138
39.284
39.077
38.623
38.043
37.407
36.75
36.085
35.46
34.916
34.457
34.071
33.779
33.578
33.465
33.426
33.437
33.494
33.598
33.715
33.806
33.858
33.86
33.794
33.683
33.573
33.483
33.588
34.308
35.956
38.362
40.927
43.002
44.238
44.581
44.165
43.175
41.835
40.371
38.932
37.636
36.544
35.71
35.206
35.141
35.578
36.405
37.412
38.35
38.999
39.26
39.146
38.745
38.177
37.554
36.911
36.262
35.606
34.963
34.388
33.929
33.606
33.409
33.319
33.318
33.367
33.428
33.475
33.508
33.535
33.595
33.67
33.689
33.63
33.504
33.324
33.147
33.057
33.275
34.224
36.164
38.807
41.439
43.397
44.381
44.455
43.855
42.795
41.45
39.986
38.548
37.232
36.084
35.171
34.64
34.656
35.253
36.256
37.378
38.35
38.961
39.142
38.966
38.559
38.011
37.369
36.66
35.929
35.231
34.621
34.111
33.72
33.453
33.259
33.098
33.0
32.984
33.061
33.191
33.318
33.416
33.492
33.543
33.55
33.502
33.405
33.273
33.111
33.014
33.343
34.566
36.809
39.584
42.128
43.847
44.531
44.354
43.58
42.412
41.036
39.588
38.147
36.815
35.672
34.788
34.294
34.365
35.047
36.152
37.388
38.431
39.049
39.198
38.961
38.453
37.792
37.07
36.347
35.671
35.063
34.521
34.012
33.535
33.16
32.955
32.916
32.942
32.961
32.984
33.04
33.147
33.287
33.403
33.449
33.422
33.35
33.248
33.124
33.069
33.375
34.483
36.579
39.272
41.84
43.668
44.519
44.482
43.787
42.676
41.316
39.833
38.361
36.988
35.764
34.778
34.192
34.172
34.765
35.821
37.057
38.142
38.852
39.153
39.096
38.741
38.172
37.485
36.746
35.982
35.214
34.516
33.953
33.547
33.26
33.04
32.887
32.822
32.812
32.839
32.933
33.086
33.257
33.414
33.489
33.46
33.382
33.296
33.203
33.154
33.465
34.615
36.75
39.452
41.983
43.753
44.579
44.57
43.918
42.807
41.389
39.818
38.279
36.895
35.697
34.737
34.147
34.11
34.725
35.851
37.145
38.259
38.961
39.197
39.057
38.643
38.068
37.428
36.741
36.014
35.292
34.614
34.006
33.507
33.153
32.937
32.818
32.748
32.759
32.852
32.988
33.148
33.304
33.417
33.446
33.39
33.304
33.239
33.364
34.117
35.846
38.353
40.987
43.057
44.209
44.456
43.989
43.024
41.761
40.326
38.822
37.368
36.015
34.837
33.991
33.702
34.099
35.093
36.402
37.651
38.548
39.011
39.067
38.813
38.328
37.686
36.956
36.199
35.466
34.799
34.229
33.772
33.407
33.095
32.889
32.819
32.829
32.897
33.004
33.132
33.276
33.416
33.5
33.497
33.417
33.386
33.697
34.794
36.839
39.427
41.867
43.611
44.464
44.505
43.928
42.9
41.553
40.042
38.525
37.09
35.787
34.72
34.073
34.033
34.672
35.83
37.151
38.259
38.947
39.207
39.114
38.768
38.249
37.605
36.895
36.171
35.481
34.845
34.264
33.779
33.443
33.222
33.075
33.019
33.067
33.203
33.387
33.562
33.684
33.725
33.702
33.669
33.809
34.543
36.199
38.573
41.06
43.061
44.203
44.435
43.962
43.031
41.826
40.445
38.985
37.531
36.167
35.01
34.258
34.124
34.671
35.753
37.043
38.189
38.973
39.309
39.234
38.873
38.345
37.699
36.986
36.262
35.551
34.878
34.308
33.866
33.552
33.349
33.244
33.22
33.252
33.323
33.422
33.523
33.605
33.661
33.704
33.744
33.966
34.781
36.472
38.83
41.255
43.125
44.129
44.267
43.728
42.723
41.44
40.019
38.575
37.186
35.905
34.84
34.208
34.205
34.86
35.968
37.186
38.225
38.92
39.21
39.111
38.689
38.07
37.367
36.647
35.936
35.268
34.671
34.152
33.738
33.431
33.221
33.128
33.136
33.232
33.376
33.532
33.65
33.703
33.697
33.673
33.671
33.841
34.579
36.215
38.559
41.017
42.946
44.003
44.19
43.705
42.755
41.493
40.051
38.567
37.159
35.896
34.881
34.315
34.357
35.007
36.074
37.275
38.309
38.939
39.119
38.947
38.561
38.026
37.367
36.636
35.883
35.162
34.529
34.019
33.646
33.395
33.238
33.159
33.139
33.174
33.266
33.414
33.571
33.684
33.729
33.708
33.641
33.663
34.134
35.438
37.571
40.05
42.24
43.662
44.164
43.878
43.054
41.886
40.548
39.164
37.795
36.494
35.353
34.534
34.263
34.663
35.637
36.878
38.038
38.834
39.169
39.1
38.737
38.177
37.482
36.734
35.991
35.282
34.655
34.124
33.704
33.406
33.223
33.14
33.125
33.17
33.294
33.466
33.619
33.712
33.772
33.8
33.758
33.655
33.582
33.884
34.991
37.016
39.535
41.846
43.447
44.167
44.081
43.385
42.266
40.872
39.386
37.956
36.638
35.481
34.622
34.287
34.62
35.548
36.753
37.882
38.696
39.106
39.143
38.868
38.358
37.687
36.904
36.1
35.348
34.685
34.119
33.654
33.316
33.11
33.034
33.048
33.121
33.251
33.404
33.557
33.67
33.699
33.668
33.604
33.569
33.803
34.721
36.514
38.884
41.202
42.894
43.713
43.736
43.168
42.184
40.919
39.51
38.075
36.703
35.45
34.475
34.011
34.213
35.019
36.171
37.349
38.267
38.788
38.904
38.687
38.244
37.663
36.989
36.24
35.482
34.77
34.157
33.679
33.324
33.067
32.908
32.856
32.9
33.031
33.208
33.371
33.5
33.585
33.612
33.623
33.791
34.512
36.108
38.408
40.793
42.653
43.668
43.839
43.335
42.362
41.091
39.685
38.28
36.934
35.695
34.686
34.101
34.133
34.834
35.993
37.238
38.249
38.851
39.011
38.816
38.358
37.705
36.951
36.164
35.379
34.626
33.934
33.353
32.892
32.544
32.312
32.189
32.189
32.292
32.452
32.618
32.767
32.878
32.929
32.953
33.083
33.666
35.053
37.173
39.51
41.458
42.648
42.982
42.599
41.74
40.592
39.247
37.787
36.305
34.906
33.758
33.098
33.151
33.985
35.354
36.823
38.029
38.773
39.027
38.865
38.391
37.742
37.041
36.35
35.665
34.995
34.409
33.959
33.64
33.445
33.356
33.334
33.332
33.354
33.424
33.54
33.687
33.919
34.423
35.418
36.9
38.569
40.045
41.039
41.42
41.239
40.603
39.602
38.346
36.934
35.451
34.041
32.919
32.339
32.458
33.24
34.461
35.794
36.915
37.624
37.899
37.829
37.499
36.979
36.391
35.802
35.223
34.682
34.19
33.786
33.482
33.279
33.152
33.067
33.009
32.978
32.974
33.107
33.737
35.26
37.625
40.269
42.483
43.849
44.293
43.975
43.118
41.922
40.556
39.126
37.71
36.36
35.179
34.364
34.148
34.639
35.699
36.992
38.18
39.032
39.442
39.445
39.148
38.623
37.944
37.173
36.38
35.662
35.067
34.572
34.155
33.857
33.699
33.614
33.561
33.519
33.544
33.824
34.701
36.491
39.063
41.811
44.029
45.349
45.755
45.403
44.521
43.319
41.927
40.503
39.195
38.038
37.07
36.42
36.28
36.672
37.468
38.439
39.287
39.803
39.937
39.72
39.256
38.63
37.879
37.058
36.267
35.56
34.963
34.502
34.196
34.036
33.977
34.001
34.049
34.072
34.084
34.151
34.475
35.457
37.358
39.921
42.539
44.622
45.865
46.239
45.85
44.9
43.635
42.29
41.06
40.031
39.204
38.54
38.065
37.898
38.1
38.562
39.128
39.627
39.912
39.905
39.6
39.079
38.419
37.68
36.931
36.211
35.563
35.04
34.662
34.403
34.222
34.132
34.129
34.201
34.336
34.462
34.511
34.477
34.361
34.181
33.968
33.793
33.892
34.706
36.557
39.262
42.168
44.556
46.017
46.474
46.09
45.149
43.963
42.762
41.726
40.949
40.372
39.877
39.446
39.179
39.144
39.296
39.513
39.677
39.73
39.623
39.335
38.866
38.22
37.465
36.671
35.905
35.236
34.708
34.322
34.059
33.883
33.769
33.702
33.681
33.671
33.653
33.628
33.585
33.513
33.399
33.233
33.053
32.881
32.707
32.55
32.385
32.185
31.99
31.837
31.723
31.72
32.23
33.842
36.682
40.172
43.4
45.667
46.726
46.687
45.875
44.673
43.405
42.3
41.469
40.876
40.411
40.01
39.69
39.488
39.411
39.436
39.515
39.569
39.522
39.326
38.972
38.446
37.794
37.096
36.402
35.722
35.092
34.567
34.17
33.89
33.71
33.625
33.609
33.61
33.575
33.52
33.468
33.424
33.372
33.289
33.166
32.997
32.791
32.585
32.421
32.31
32.197
32.028
31.819
31.595
31.4
31.29
31.439
32.307
34.325
37.375
40.745
43.603
45.455
46.19
45.968
45.077
43.86
42.61
41.537
40.726
40.13
39.656
39.263
38.972
38.853
38.895
39.037
39.186
39.266
39.207
38.975
38.578
38.025
37.363
36.645
35.932
35.281
34.744
34.336
34.015
33.749
33.531
33.396
33.36
33.412
33.477
33.497
33.466
33.403
33.339
33.267
33.137
32.935
32.709
32.503
32.332
32.185
32.036
31.891
31.76
31.638
31.515
31.391
31.285
31.236
31.491
32.546
34.774
37.929
41.234
43.892
45.441
45.868
45.402
44.357
43.04
41.708
40.543
39.625
38.941
38.42
38.037
37.856
37.954
38.282
38.708
39.084
39.28
39.239
38.948
38.461
37.841
37.132
36.387
35.655
34.99
34.43
33.991
33.694
33.507
33.387
33.331
33.317
33.329
33.367
33.421
33.458
33.456
33.409
33.305
33.141
32.927
32.718
32.545
32.385
32.235
32.081
31.913
31.748
31.588
31.424
31.279
31.236
31.612
32.926
35.406
38.596
41.669
43.93
45.084
45.203
44.563
43.427
42.036
40.622
39.338
38.296
37.501
36.912
36.562
36.537
36.871
37.451
38.102
38.636
38.913
38.881
38.567
38.048
37.388
36.658
35.923
35.209
34.546
33.967
33.517
33.206
33.002
32.893
32.858
32.865
32.908
32.972
33.024
33.053
33.058
33.035
32.97
32.89
32.795
32.677
32.534
32.366
32.196
32.017
31.816
31.606
31.387
31.213
31.287
32.066
34.004
36.962
40.186
42.821
44.385
44.845
44.448
43.456
42.112
40.647
39.235
37.977
36.892
35.964
35.282
35.037
35.348
36.119
37.073
37.948
38.565
38.831
38.715
38.28
37.623
36.842
36.028
35.25
34.545
33.912
33.361
32.94
32.667
32.543
32.497
32.482
32.506
32.566
32.661
32.783
32.91
33.001
33.015
32.961
32.863
32.737
32.6
32.45
32.275
32.087
31.895
31.681
31.443
31.237
31.184
31.694
33.324
36.108
39.374
42.224
44.098
44.851
44.631
43.758
42.524
41.11
39.63
38.181
36.841
35.699
34.874
34.494
34.659
35.338
36.351
37.42
38.265
38.72
38.772
38.51
38.01
37.332
36.55
35.709
34.898
34.17
33.556
33.065
32.694
32.427
32.277
32.223
32.228
32.293
32.403
32.525
32.645
32.745
32.807
32.852
32.875
32.848
32.746
32.563
32.324
32.057
31.805
31.796
32.575
34.537
37.41
40.401
42.726
44.011
44.304
43.841
42.876
41.601
40.179
38.703
37.278
35.967
34.822
33.979
33.646
33.951
34.838
36.052
37.238
38.101
38.484
38.456
38.134
37.584
36.883
36.104
35.303
34.512
33.773
33.098
32.467
31.921
31.506
31.265
31.195
31.234
31.321
31.458
31.662
31.916
32.155
32.33
32.392
32.35
32.251
32.093
31.879
31.655
31.533
31.811
32.971
35.194
37.98
40.501
42.154
42.804
42.643
41.937
40.871
39.574
38.156
36.706
35.274
33.93
32.818
32.163
32.177
32.927
34.26
35.802
37.104
37.917
38.225
38.127
37.734
37.158
36.481
35.752
34.993
34.265
33.599
33.052
32.648
32.38
32.23
32.174
32.147
32.13
32.164
32.241
32.341
32.437
32.508
32.628
33.133
34.487
36.752
39.405
41.7
43.137
43.625
43.363
42.58
41.473
40.218
38.879
37.472
36.012
34.567
33.333
32.596
32.587
33.338
34.638
36.093
37.326
38.113
38.451
38.45
38.181
37.704
37.101
36.426
35.689
34.947
34.271
33.719
33.316
33.034
32.842
32.729
32.681
32.657
32.645
32.675
32.761
32.959
33.578
35.15
37.809
40.961
43.752
45.654
46.546
46.536
45.837
44.647
43.182
41.618
40.045
38.557
37.218
36.073
35.249
34.961
35.332
36.279
37.52
38.699
39.52
39.871
39.806
39.456
38.896
38.206
37.446
36.655
35.834
35.05
34.394
33.916
33.592
33.388
33.287
33.23
33.181
33.146
33.153
33.293
33.914
35.496
38.135
41.303
44.158
46.118
47.012
46.97
46.234
45.029
43.595
42.093
40.65
39.393
38.352
37.491
36.881
36.655
36.888
37.527
38.37
39.168
39.739
40.024
40.011
39.721
39.199
38.503
37.732
36.959
36.227
35.564
35.002
34.585
34.323
34.175
34.101
34.067
34.058
34.06
34.052
34.061
34.271
35.128
36.999
39.722
42.667
45.111
46.62
47.117
46.767
45.85
44.608
43.244
41.942
40.822
39.92
39.199
38.623
38.243
38.138
38.295
38.608
38.97
39.289
39.454
39.427
39.205
38.79
38.19
37.458
36.688
35.957
35.317
34.764
34.288
33.901
33.606
33.403
33.307
33.284
33.288
33.302
33.297
33.275
33.374
33.952
35.445
37.893
40.79
43.438
45.32
46.212
46.178
45.455
44.333
43.073
41.877
40.884
40.124
39.525
38.99
38.536
38.256
38.19
38.32
38.56
38.797
38.927
38.869
38.59
38.121
37.502
36.798
36.07
35.375
34.747
34.196
33.7
33.273
32.955
32.761
32.68
32.675
32.708
32.763
32.797
32.763
32.687
32.647
32.754
33.313
34.739
37.089
39.865
42.355
44.029
44.71
44.524
43.753
42.658
41.458
40.337
39.432
38.74
38.158
37.642
37.244
37.097
37.248
37.591
37.953
38.19
38.228
38.045
37.671
37.155
36.558
35.921
35.283
34.651
34.074
33.62
33.3
33.071
32.921
32.831
32.779
32.759
32.777
32.805
32.769
32.687
32.597
32.506
32.424
32.497
33.07
34.472
36.633
39.0
40.914
42.027
42.313
41.922
41.074
40.002
38.89
37.869
37.005
36.286
35.695
35.316
35.26
35.52
36.014
36.585
37.04
37.27
37.211
36.878
36.37
35.772
35.134
34.506
33.933
33.417
32.982
32.67
32.481
32.395
32.383
32.377
32.34
32.301
32.326
32.4
32.434
32.377
32.274
32.158
32.052
32.033
32.361
33.377
35.142
37.247
39.103
40.301
40.732
40.536
39.894
39.014
38.069
37.18
36.417
35.766
35.177
34.732
34.572
34.734
35.171
35.717
36.188
36.457
36.499
36.325
35.966
35.485
34.943
34.386
33.872
33.438
33.081
32.818
32.642
32.521
32.446
32.411
32.405
32.413
32.419
32.406
32.365
32.314
32.261
32.273
32.532
33.313
34.732
36.544
38.259
39.452
39.96
39.864
39.351
38.614
37.795
37.008
36.355
35.847
35.423
35.091
34.919
34.977
35.256
35.661
36.073
36.372
36.444
36.26
35.869
35.371
34.871
34.439
34.073
33.738
33.432
33.174
32.962
32.821
32.77
32.784
32.834
32.893
32.928
32.93
32.9
32.831
32.725
32.66
32.776
33.305
34.432
36.073
37.853
39.306
40.136
40.318
39.994
39.385
38.672
37.967
37.332
36.797
36.369
36.04
35.838
35.81
35.969
36.256
36.577
36.844
36.969
36.927
36.725
36.383
35.941
35.466
35.017
34.632
34.3
33.996
33.735
33.551
33.461
33.441
33.46
33.504
33.547
33.562
33.531
33.473
33.41
33.354
33.284
33.176
33.04
32.972
33.238
34.16
35.776
37.722
39.443
40.538
40.911
40.694
40.127
39.424
38.716
38.092
37.592
37.184
36.834
36.572
36.451
36.507
36.696
36.943
37.171
37.324
37.362
37.242
36.969
36.599
36.154
35.658
35.173
34.765
34.453
34.246
34.122
34.027
33.93
33.862
33.838
33.853
33.85
33.815
33.779
33.749
33.731
33.711
33.649
33.518
33.339
33.133
32.94
32.801
32.762
32.985
33.794
35.347
37.357
39.28
40.67
41.321
41.256
40.707
39.938
39.157
38.482
37.952
37.526
37.148
36.843
36.674
36.666
36.806
37.038
37.307
37.54
37.677
37.656
37.456
37.11
36.689
36.234
35.802
35.435
35.139
34.878
34.651
34.479
34.35
34.278
34.255
34.237
34.199
34.167
34.149
34.136
34.128
34.079
33.949
33.763
33.575
33.404
33.235
33.06
32.912
32.829
32.964
33.651
35.116
37.12
39.156
40.712
41.522
41.617
41.176
40.444
39.644
38.923
38.329
37.859
37.484
37.156
36.942
36.919
37.071
37.32
37.588
37.82
37.964
37.959
37.781
37.445
37.005
36.516
36.038
35.614
35.242
34.923
34.655
34.464
34.343
34.246
34.151
34.081
34.053
34.064
34.09
34.099
34.055
33.94
33.806
33.701
33.575
33.437
33.296
33.126
32.92
32.726
32.592
32.534
32.661
33.284
34.693
36.758
38.956
40.726
41.788
42.094
41.776
41.058
40.167
39.316
38.617
38.081
37.637
37.22
36.857
36.678
36.784
37.12
37.523
37.891
38.146
38.231
38.125
37.835
37.41
36.912
36.381
35.854
35.397
35.024
34.733
34.496
34.289
34.115
33.979
33.909
33.888
33.867
33.843
33.835
33.82
33.78
33.727
33.639
33.502
33.328
33.143
32.953
32.786
32.672
32.681
33.021
34.012
35.765
37.951
40.012
41.469
42.139
42.123
41.648
40.921
40.092
39.277
38.559
37.947
37.406
36.948
36.651
36.606
36.794
37.133
37.556
37.958
38.216
38.28
38.135
37.77
37.267
36.716
36.181
35.69
35.2
34.715
34.321
34.08
33.957
33.878
33.814
33.75
33.691
33.662
33.663
33.685
33.701
33.677
33.581
33.429
33.275
33.143
33.011
32.887
32.837
33.099
34.058
35.852
38.109
40.239
41.78
42.532
42.562
42.076
41.281
40.372
39.499
38.733
38.087
37.529
37.029
36.639
36.48
36.606
36.962
37.443
37.891
38.161
38.208
38.074
37.772
37.333
36.801
36.215
35.62
35.101
34.706
34.418
34.177
33.924
33.686
33.519
33.42
33.382
33.416
33.495
33.578
33.605
33.565
33.463
33.315
33.153
33.006
32.893
32.888
33.252
34.336
36.217
38.514
40.637
42.157
42.876
42.853
42.306
41.482
40.563
39.65
38.831
38.121
37.507
