43.307
42.962
42.547
42.124
41.661
41.105
40.422
39.591
38.688
37.869
37.231
36.77
36.49
36.353
36.223
36.032
35.771
35.425
34.974
34.452
33.903
33.371
32.896
32.419
31.929
31.482
31.129
30.835
30.567
30.325
30.078
29.81
29.541
29.442
29.941
31.519
34.188
37.349
40.158
42.03
42.88
42.982
42.699
42.272
41.804
41.325
40.833
40.255
39.534
38.72
37.923
37.239
36.757
36.503
36.391
36.34
36.281
36.136
35.875
35.522
35.073
34.573
34.081
33.621
33.203
32.803
32.389
31.999
31.698
31.479
31.283
31.053
30.762
30.542
30.774
31.937
34.159
36.959
39.551
41.335
42.186
42.319
42.017
41.507
40.909
40.259
39.56
38.786
37.92
37.057
36.36
35.941
35.778
35.769
35.852
35.934
35.939
35.845
35.613
35.264
34.843
34.399
33.962
33.517
33.08
32.707
32.398
32.131
31.873
31.621
31.364
31.126
30.971
31.182
32.241
34.346
37.091
39.73
41.644
42.622
42.786
42.447
41.888
41.287
40.699
40.075
39.345
38.515
37.687
36.946
36.404
36.137
36.063
36.081
36.127
36.13
36.014
35.786
35.467
35.058
34.569
34.066
33.575
33.125
32.767
32.473
32.193
31.914
31.639
31.379
31.129
30.878
30.792
31.318
32.927
35.612
38.721
41.376
43.043
43.733
43.796
43.595
43.285
42.865
42.366
41.814
41.164
40.397
39.561
38.758
38.092
37.618
37.367
37.281
37.254
37.19
37.009
36.688
36.275
35.853
35.422
34.931
34.4
33.872
33.428
33.06
32.722
32.392
32.059
31.686
31.288
30.965
30.934
31.59
33.336
36.045
39.012
41.48
43.035
43.719
43.814
43.604
43.297
42.974
42.633
42.252
41.783
41.135
40.314
39.434
38.659
38.111
37.772
37.592
37.53
37.487
37.37
37.12
36.734
36.277
35.821
35.359
34.889
34.423
33.957
33.497
33.052
32.644
32.275
31.916
31.615
31.664
32.542
34.49
37.145
39.773
41.737
42.795
43.113
43.028
42.77
42.434
42.065
41.66
41.148
40.475
39.675
38.831
38.041
37.39
36.937
36.677
36.576
36.516
36.384
36.164
35.868
35.472
34.973
34.438
33.943
33.509
33.129
32.782
32.425
32.049
31.713
31.434
31.175
31.047
31.432
32.817
35.23
38.049
40.521
42.187
42.995
43.162
42.973
42.652
42.288
41.901
41.478
40.943
40.225
39.364
38.497
37.791
37.327
37.072
36.946
36.84
36.691
36.466
36.146
35.764
35.358
34.955
34.571
34.173
33.718
33.239
32.817
32.454
32.16
31.897
31.651
31.392
31.168
31.239
32.06
33.91
36.515
39.182
41.263
42.478
42.937
42.93
42.674
42.307
41.888
41.407
40.831
40.15
39.365
38.571
37.853
37.298
36.932
36.712
36.581
36.479
36.322
36.067
35.722
35.315
34.899
34.491
34.066
33.628
33.195
32.826
32.521
32.264
32.016
31.747
31.465
31.188
30.937
30.864
31.338
32.715
34.995
37.703
40.135
41.812
42.638
42.791
42.533
42.111
41.653
41.187
40.703
40.105
39.346
38.536
37.837
37.329
37.029
36.925
36.911
36.889
36.802
36.62
36.342
35.976
35.55
35.122
34.701
34.278
33.857
33.486
33.172
32.878
32.571
32.233
31.898
31.643
31.618
32.146
33.562
35.783
38.247
40.323
41.674
42.267
42.299
41.996
41.539
41.033
40.497
39.866
39.093
38.21
37.389
36.812
36.534
36.485
36.55
36.615
36.594
36.485
36.283
35.967
35.553
35.087
34.62
34.192
33.846
33.557
33.283
33.003
32.709
32.4
32.054
31.764
31.833
32.703
34.547
36.981
39.345
41.083
41.995
42.229
42.018
41.547
40.967
40.364
39.744
39.041
38.242
37.424
36.735
36.305
36.138
36.145
36.232
36.354
36.371
36.218
35.9
35.443
34.943
34.497
34.09
33.674
33.251
32.843
32.51
32.256
31.986
31.662
31.392
31.492
32.402
34.326
36.944
39.535
41.465
42.5
42.763
42.556
42.131
41.631
41.119
40.567
39.891
39.059
38.168
37.344
36.716
36.348
36.23
36.263
36.317
36.283
36.132
35.9
35.614
35.239
34.788
34.313
33.833
33.386
32.985
32.63
32.322
31.999
31.68
31.451
31.617
32.678
34.831
37.593
40.23
42.149
43.156
43.45
43.363
43.09
42.694
42.209
41.699
41.158
40.496
39.68
38.769
37.935
37.351
37.032
36.928
36.922
36.89
36.766
36.511
36.129
35.689
35.235
34.76
34.256
33.776
33.409
33.15
32.88
32.496
32.035
31.63
31.655
32.604
34.654
37.396
40.085
42.119
43.283
43.712
43.673
43.432
43.119
42.777
42.386
41.885
41.239
40.452
39.546
38.639
37.897
37.417
37.164
37.034
36.929
36.805
36.607
36.277
35.848
35.355
34.835
34.313
33.806
33.358
32.955
32.592
32.251
31.914
31.58
31.224
30.943
31.116
32.29
34.593
37.516
40.283
42.31
43.468
43.966
44.079
43.996
43.798
43.539
43.242
42.872
42.323
41.533
40.599
39.67
38.845
38.176
37.693
37.352
37.101
36.876
36.635
36.315
35.89
35.401
34.861
34.297
33.767
33.291
32.889
32.528
32.163
31.801
31.447
31.115
30.815
30.561
30.528
31.143
32.886
35.634
38.659
41.164
42.734
43.406
43.482
43.31
43.064
42.78
42.47
42.108
41.59
40.876
39.993
39.017
38.074
37.311
36.811
36.585
36.511
36.412
36.202
35.889
35.509
35.068
34.56
34.028
33.514
33.061
32.629
32.199
31.818
31.5
31.216
30.931
30.632
30.336
30.071
29.925
30.285
31.693
34.22
37.257
39.984
41.87
42.815
43.072
42.965
42.694
42.346
41.947
41.495
40.938
40.236
39.417
38.589
37.845
37.263
36.892
36.712
36.614
36.493
36.282
35.996
35.643
35.209
34.714
34.192
33.681
33.209
32.785
32.389
32.019
31.661
31.325
30.995
30.661
30.301
30.08
30.375
31.649
33.991
36.895
39.578
41.403
42.221
42.284
41.977
41.546
41.057
40.509
39.912
39.221
38.384
37.457
36.594
35.991
35.664
35.502
35.412
35.351
35.248
35.034
34.706
34.305
33.846
33.388
32.939
32.479
32.019
31.619
31.261
30.918
30.604
30.334
30.109
29.918
29.742
29.566
29.408
29.549
30.61
32.957
36.207
39.425
41.818
43.106
43.486
43.317
42.903
42.433
41.968
41.461
40.815
39.975
38.995
38.018
37.181
36.577
36.205
36.014
35.916
35.838
35.7
35.461
35.105
34.662
34.148
33.62
33.124
32.665
32.205
31.728
31.291
30.96
30.737
30.548
30.331
30.059
29.754
29.507
29.554
30.412
32.529
35.662
38.929
41.483
42.958
43.448
43.304
42.836
42.227
41.594
40.976
40.32
39.569
38.682
37.75
36.955
36.406
36.086
35.95
35.942
35.957
35.894
35.704
35.384
34.957
34.465
33.963
33.505
33.103
32.735
32.345
31.939
31.538
31.172
30.843
30.53
30.252
30.17
30.714
32.42
35.233
38.389
40.994
42.591
43.192
43.053
42.5
41.784
41.048
40.33
39.577
38.715
37.749
36.829
36.096
35.622
35.414
35.395
35.448
35.476
35.387
35.143
34.757
34.302
33.831
33.368
32.917
32.433
31.935
31.516
31.212
30.94
30.661
30.421
30.257
30.104
29.903
29.75
30.067
31.557
34.48
38.143
41.408
43.522
44.401
44.37
43.866
43.209
42.551
41.925
41.275
40.523
39.645
38.709
37.829
37.095
36.595
36.351
36.277
36.248
36.149
35.951
35.664
35.284
34.826
34.319
33.787
33.276
32.793
32.326
31.878
31.464
31.117
30.849
30.601
30.315
29.978
29.718
29.931
31.228
33.874
37.333
40.621
42.923
44.053
44.301
44.023
43.475
42.789
42.047
41.318
40.57
39.74
38.831
37.942
37.233
36.772
36.508
36.376
36.341
36.316
36.205
35.955
35.576
35.114
34.583
34.036
33.528
33.105
32.758
32.43
32.117
31.808
31.495
31.173
30.849
30.567
30.445
30.887
32.465
35.265
38.577
41.404
43.176
43.852
43.728
43.176
42.479
41.78
41.104
40.366
39.503
38.548
37.638
36.892
36.405
36.18
36.148
36.232
36.294
36.219
36.028
35.728
35.324
34.863
34.405
33.967
33.528
33.086
32.674
32.31
31.981
31.688
31.426
31.158
30.897
30.989
31.992
34.201
37.234
40.222
42.387
43.424
43.524
43.032
42.253
41.395
40.576
39.804
38.994
38.092
37.183
36.412
35.893
35.668
35.698
35.878
36.02
36.015
35.838
35.526
35.113
34.613
34.091
33.617
33.171
32.765
32.392
32.069
31.786
31.518
31.238
30.931
30.669
30.728
31.674
33.901
37.109
40.362
42.815
44.119
44.41
44.084
43.467
42.725
41.967
41.241
40.5
39.663
38.749
37.893
37.243
36.851
36.68
36.623
36.57
36.495
36.346
36.086
35.701
35.242
34.755
34.262
33.788
33.352
32.964
32.601
32.254
31.938
31.649
31.346
31.048
30.943
31.458
33.127
36.007
39.377
42.243
44.0
44.658
44.582
44.181
43.677
43.13
42.574
41.993
41.332
40.534
39.603
38.674
37.913
37.378
37.039
36.895
36.854
36.781
36.609
36.32
35.907
35.369
34.788
34.237
33.756
33.348
32.948
32.533
32.135
31.742
31.381
31.049
30.735
30.455
30.477
31.395
33.647
36.91
40.204
42.652
43.987
44.394
44.246
43.887
43.489
43.085
42.638
42.088
41.408
40.598
39.7
38.802
38.015
37.424
37.081
36.937
36.843
36.676
36.407
36.053
35.622
35.172
34.708
34.224
33.74
33.266
32.816
32.429
32.13
31.901
31.682
31.411
31.082
30.783
30.799
31.694
33.872
37.004
40.141
42.468
43.709
44.057
43.858
43.408
42.876
42.326
41.78
41.187
40.456
39.579
38.696
37.949
37.38
37.006
36.834
36.806
36.798
36.714
36.519
36.212
35.787
35.276
34.752
34.276
33.852
33.467
33.097
32.73
32.386
32.072
31.741
31.397
31.147
31.332
32.434
34.637
37.504
40.24
42.206
43.192
43.358
43.029
42.528
42.012
41.488
40.919
40.292
39.554
38.683
37.79
37.06
36.603
36.44
36.443
36.482
36.457
36.299
36.001
35.596
35.119
34.64
34.157
33.716
33.332
32.957
32.596
32.272
31.986
31.719
31.452
31.177
30.951
31.01
31.864
33.892
36.822
39.856
42.16
43.41
43.792
43.662
43.335
42.973
42.629
42.272
41.809
41.167
40.352
39.449
38.623
38.0
37.592
37.387
37.287
37.173
37.0
36.734
36.344
35.876
35.407
34.956
34.543
34.164
33.819
33.49
33.124
32.733
32.379
32.069
31.781
31.524
31.462
32.002
33.561
36.092
38.972
41.433
43.032
43.756
43.891
43.756
43.499
43.173
42.822
42.434
41.949
41.331
40.581
39.753
38.974
38.347
37.933
37.682
37.483
37.274
37.057
36.782
36.386
35.89
35.357
34.855
34.407
34.035
33.69
33.301
32.889
32.529
32.236
31.959
31.646
31.36
31.327
31.945
33.554
36.021
38.714
40.968
42.413
43.046
43.116
42.902
42.565
42.179
41.78
41.329
40.747
40.002
39.144
38.281
37.547
37.021
36.691
36.495
36.357
36.231
36.057
35.767
35.374
34.921
34.42
33.917
33.482
33.125
32.783
32.445
32.112
31.802
31.551
31.348
31.111
30.792
30.456
30.363
31.007
32.762
35.428
38.296
40.625
42.009
42.516
42.474
42.183
41.777
41.325
40.845
40.296
39.65
38.91
38.133
37.401
36.828
36.512
36.427
36.43
36.417
36.307
36.08
35.729
35.299
34.864
34.479
34.117
33.715
33.281
32.842
32.464
32.176
31.937
31.709
31.448
31.186
31.101
31.574
32.994
35.325
37.99
40.248
41.633
42.11
41.968
41.539
41.002
40.406
39.74
39.014
38.233
37.458
36.77
36.237
35.902
35.752
35.74
35.794
35.807
35.701
35.467
35.115
34.706
34.303
33.889
33.473
33.067
32.71
32.415
32.161
31.887
31.569
31.252
30.965
30.821
31.218
32.63
35.089
37.971
40.466
42.03
42.62
42.533
42.124
41.595
40.983
40.33
39.638
38.862
38.019
37.199
36.526
36.101
35.935
35.929
35.963
35.945
35.832
35.652
35.39
35.026
34.588
34.116
33.649
33.237
32.895
32.583
32.27
31.944
31.623
31.31
30.99
30.717
30.768
31.664
33.741
36.658
39.575
41.766
42.939
43.254
43.049
42.623
42.125
41.65
41.18
40.643
39.945
39.093
38.197
37.407
36.881
36.628
36.54
36.493
36.421
36.274
36.034
35.697
35.27
34.811
34.388
33.977
33.535
33.105
32.726
32.397
32.123
31.879
31.601
31.303
31.118
31.442
32.81
35.292
38.25
40.823
42.481
43.206
43.286
43.038
42.63
42.142
41.594
41.021
40.407
39.696
38.876
38.044
37.382
36.979
36.808
36.752
36.744
36.742
36.665
36.432
36.054
35.585
35.069
34.561
34.11
33.724
33.377
33.032
32.683
32.337
31.99
31.704
31.706
32.417
34.136
36.635
39.247
41.328
42.549
42.918
42.709
42.237
41.698
41.168
40.647
40.049
39.296
38.43
37.602
36.945
36.519
36.33
36.302
36.314
36.285
36.197
36.004
35.703
35.32
34.862
34.354
33.852
33.434
33.1
32.794
32.495
32.177
31.806
31.405
31.123
31.261
32.233
34.251
36.975
39.681
41.799
43.115
43.681
43.697
43.387
42.906
42.374
41.833
41.212
40.449
39.574
38.725
38.007
37.445
37.039
36.767
36.578
36.402
36.242
36.053
35.785
35.459
35.102
34.701
34.223
33.706
33.257
32.939
32.733
32.578
32.431
32.258
32.046
31.923
32.217
33.379
35.538
38.276
40.862
42.728
43.747
44.088
44.021
43.749
43.352
42.875
42.319
41.656
40.828
39.897
39.01
38.342
37.979
37.841
37.803
37.817
37.789
37.602
37.217
36.674
36.051
35.439
34.913
34.477
34.102
33.768
33.485
33.258
33.058
32.78
32.417
32.074
32.027
32.695
34.307
36.637
39.107
41.153
42.506
43.148
43.228
42.951
42.5
41.97
41.377
40.751
40.073
39.322
38.533
37.786
37.216
36.904
36.777
36.698
36.551
36.28
35.904
35.469
35.007
34.52
34.009
33.537
33.154
32.877
32.644
32.371
32.029
31.644
31.283
31.013
30.888
31.038
31.821
33.586
36.151
38.824
40.901
42.099
42.523
42.418
42.041
41.563
41.056
40.55
39.975
39.264
38.422
37.585
36.922
36.559
36.483
36.522
36.529
36.496
36.421
36.285
36.048
35.655
35.129
34.586
34.142
33.853
33.664
33.51
33.322
33.083
32.804
32.499
32.242
32.224
32.807
34.272
36.46
38.807
40.713
41.868
42.301
42.246
41.879
41.332
40.707
40.03
39.3
38.541
37.801
37.159
36.708
36.477
36.473
36.632
36.825
36.909
36.818
36.514
36.037
35.512
35.062
34.689
34.344
34.022
33.751
33.504
33.254
32.998
32.748
32.551
32.404
32.444
33.041
34.436
36.508
38.731
40.528
41.576
41.886
41.723
41.365
40.923
40.413
39.855
39.257
38.573
37.863
37.278
36.904
36.727
36.678
36.653
36.578
36.46
36.305
36.063
35.732
35.351
34.929
34.5
34.114
33.817
33.577
33.307
32.983
32.633
32.318
32.077
31.935
32.077
32.847
34.375
36.339
38.188
39.517
40.178
40.276
40.031
39.646
39.236
38.785
38.241
37.604
36.935
36.327
35.845
35.527
35.417
35.489
35.642
35.718
35.66
35.473
35.21
34.927
34.647
34.378
34.105
33.825
33.535
33.255
32.995
32.7
32.351
31.996
31.708
31.666
32.159
33.36
35.088
36.888
38.302
39.101
39.312
39.121
38.701
38.219
37.77
37.357
36.944
36.47
35.948
35.44
35.022
34.765
34.688
34.722
34.786
34.832
34.792
34.635
34.393
34.094
33.76
33.443
33.185
32.97
32.77
32.554
32.316
32.069
31.833
31.632
31.661
32.198
33.379
35.026
36.722
38.019
38.708
38.844
38.598
38.18
37.765
37.376
36.974
36.525
36.025
35.516
35.099
34.819
34.69
34.681
34.749
34.824
34.855
34.799
34.656
34.461
34.211
33.922
33.654
33.446
33.276
33.089
32.832
32.54
32.3
32.197
32.354
32.931
34.046
35.528
37.017
38.172
38.796
38.928
38.755
38.466
38.158
37.848
37.504
37.109
36.683
36.249
35.879
35.648
35.567
35.57
35.621
35.67
35.637
35.537
35.402
35.228
35.001
34.752
34.519
34.306
34.09
33.845
33.575
33.318
33.123
33.078
33.331
34.026
35.203
36.671
38.057
39.065
39.562
39.613
39.411
39.132
38.845
38.561
38.258
37.911
37.526
37.144
36.808
36.569
36.453
36.42
36.438
36.437
36.37
36.237
36.065
35.87
35.632
35.361
35.115
34.909
34.722
34.519
34.302
34.058
33.78
33.538
33.455
33.731
34.593
36.02
37.627
38.931
39.669
39.908
39.865
39.73
39.588
39.424
39.214
38.938
38.6
38.194
37.748
37.367
37.134
37.042
37.046
37.077
37.082
37.005
36.835
36.637
36.415
36.142
35.83
35.529
35.269
35.009
34.738
34.5
34.283
34.035
33.765
33.609
33.812
34.552
35.824
37.326
38.627
39.459
39.82
39.835
39.636
39.324
39.013
38.746
38.483
38.17
37.776
37.317
36.893
36.578
36.398
36.37
36.407
36.415
36.355
36.205
35.978
35.707
35.439
35.213
35.027
34.831
34.575
34.303
34.065
33.857
33.657
33.452
33.281
33.302
33.714
34.642
35.974
37.343
38.383
38.921
38.99
38.767
38.438
38.113
37.814
37.508
37.145
36.73
36.317
36.008
35.869
35.885
35.99
36.104
36.163
36.117
35.996
35.834
35.692
35.584
35.455
35.258
35.037
34.872
34.747
34.591
34.387
34.189
34.021
33.884
33.883
34.226
35.036
36.205
37.46
38.464
38.999
39.073
38.829
38.468
38.145
37.892
37.657
37.37
37.011
36.674
36.46
36.398
36.465
36.605
36.756
36.85
36.831
36.724
36.582
36.409
36.218
36.036
35.884
35.764
35.65
35.515
35.377
35.238
35.085
34.895
34.727
34.738
35.128
35.992
37.171
38.292
39.086
39.469
39.479
39.28
39.027
38.779
38.527
38.228
37.878
37.554
37.31
37.14
37.011
36.917
36.875
36.882
36.907
36.922
36.859
36.688
36.442
36.21
36.036
35.868
35.686
35.511
35.355
35.231
35.079
34.85
34.598
34.408
34.397
34.733
35.514
36.665
37.898
38.882
39.393
39.455
39.284
39.04
38.813
38.601
38.399
38.216
38.03
37.8
37.552
37.35
37.228
37.189
37.201
37.21
37.156
37.026
36.861
36.697
36.542
36.355
36.156
35.955
35.75
35.568
35.414
35.256
35.068
34.872
34.708
34.612
34.688
35.099
35.966
37.167
38.367
39.239
39.637
39.636
39.436
39.209
39.007
38.822
38.642
38.45
38.224
37.958
37.656
37.371
37.199
37.118
37.073
37.037
36.964
36.866
36.746
36.584
36.397
36.184
35.958
35.755
35.581
35.406
35.227
35.064
34.933
34.793
34.626
34.432
34.253
34.256
34.679
35.623
36.9
38.119
38.986
39.426
39.502
39.362
39.151
38.949
38.782
38.615
38.394
38.093
37.768
37.482
37.264
37.123
37.068
37.085
37.137
37.152
37.068
36.901
36.682
36.423
36.178
35.987
35.803
35.617
35.438
35.271
35.092
34.897
34.711
34.536
34.349
34.179
34.167
34.496
35.285
36.463
37.743
38.791
39.421
39.614
39.478
39.198
38.898
38.661
38.522
38.398
38.178
37.843
37.452
37.144
37.003
37.001
37.059
37.099
37.064
36.951
36.767
36.554
36.321
36.072
35.828
35.591
35.358
35.164
35.039
34.94
34.819
34.652
34.434
34.2
33.996
33.909
34.109
34.772
35.889
37.206
38.394
39.202
39.536
39.474
39.203
38.884
38.588
38.308
38.027
37.747
37.444
37.161
36.939
36.79
36.734
36.737
36.751
36.752
36.715
36.593
36.391
36.152
35.905
35.657
35.432
35.225
35.032
34.876
34.747
34.609
34.449
34.267
34.079
33.891
33.76
33.844
34.322
35.27
36.56
37.882
38.902
39.441
39.549
39.364
39.046
38.718
38.417
38.142
37.889
37.609
37.309
37.058
36.898
36.828
36.832
36.874
36.886
36.814
36.635
36.357
36.078
35.865
35.691
35.509
35.278
34.989
34.669
34.376
34.143
33.992
33.876
33.724
33.528
33.369
33.417
33.953
35.08
36.562
37.974
38.982
39.465
39.453
39.126
38.707
38.321
37.988
37.655
37.276
36.882
36.552
36.332
36.23
36.226
36.256
36.266
36.235
36.126
35.899
35.606
35.31
35.028
34.757
34.499
34.264
34.036
33.796
33.587
33.429
33.303
33.17
32.975
32.765
32.718
33.123
34.192
35.798
37.487
38.802
39.536
39.721
39.559
39.231
38.868
38.559
38.271
37.947
37.558
37.155
36.857
36.738
36.789
36.888
36.949
36.945
36.867
36.716
36.501
36.239
35.956
35.669
35.414
35.2
35.011
34.83
34.64
34.437
34.237
34.062
33.914
33.81
33.935
34.567
35.755
37.239
38.592
39.525
39.973
39.987
39.705
39.292
38.845
38.41
37.997
37.604
37.249
36.991
36.893
36.932
37.042
37.152
37.185
37.124
37.016
36.88
36.718
36.502
36.238
35.979
35.741
35.505
35.281
35.092
34.927
34.759
34.548
34.313
34.149
34.27
34.924
36.124
37.607
38.957
39.859
40.232
40.171
39.854
39.439
39.005
38.583
38.169
37.771
37.419
37.158
37.047
37.07
37.176
37.297
37.351
37.299
37.166
36.994
36.766
36.488
36.194
35.929
35.684
35.45
35.214
34.957
34.684
34.442
34.273
34.214
34.344
34.837
35.827
37.225
38.675
39.785
40.358
40.442
40.209
39.842
39.435
39.023
38.601
38.154
37.728
37.404
37.241
37.236
37.329
37.426
37.435
37.329
37.132
36.895
36.666
36.484
36.315
36.1
35.837
35.562
35.319
35.111
34.913
34.694
34.486
34.33
34.361
34.822
35.827
37.219
38.656
39.797
40.475
40.654
40.426
39.998
39.515
39.042
38.597
38.199
37.859
37.598
37.447
37.378
37.368
37.404
37.414
37.358
37.241
37.073
36.881
36.651
36.367
36.055
35.788
35.598
35.426
35.209
34.923
34.618
34.367
34.274
34.479
35.129
36.228
37.587
38.926
39.962
40.508
40.56
40.285
39.909
39.519
39.107
38.665
38.228
37.853
37.606
37.491
37.47
37.514
37.591
37.625
37.559
37.412
37.215
36.956
36.662
36.397
36.156
35.903
35.665
35.472
35.343
35.208
34.993
34.738
34.608
34.841
35.629
36.887
38.321
39.577
40.394
40.71
40.641
40.354
40.009
39.675
39.35
38.989
38.564
38.185
37.967
37.922
37.998
38.127
38.222
38.214
38.089
37.894
37.654
37.381
37.085
36.783
36.517
36.324
36.184
36.019
35.801
35.529
35.281
35.143
35.254
35.806
36.874
38.248
39.581
40.582
41.088
41.16
40.966
40.667
40.334
39.967
39.569
39.169
38.825
38.614
38.562
38.613
38.659
38.678
38.651
38.539
38.314
38.011
37.695
37.405
37.136
36.877
36.632
36.402
36.184
35.951
35.701
35.483
35.314
35.32
35.775
36.792
38.188
39.604
40.713
41.366
41.569
41.426
41.087
40.695
40.307
39.892
39.467
39.062
38.728
38.534
38.504
38.527
38.523
38.462
38.331
38.122
37.823
37.468
37.147
36.895
36.635
36.339
36.034
35.736
35.47
35.235
35.027
34.871
34.841
35.123
35.896
37.159
38.664
40.009
40.871
41.184
41.106
40.81
40.432
40.039
39.613
39.123
38.603
38.158
37.859
37.743
37.766
37.822
37.794
37.647
37.392
37.077
36.76
36.479
36.234
35.986
35.722
35.425
35.109
34.821
34.576
34.355
34.143
33.972
33.966
34.377
35.344
36.768
38.34
39.69
40.547
40.847
40.751
40.454
40.059
39.618
39.163
38.658
38.172
37.808
37.596
37.511
37.508
37.51
37.447
37.306
37.081
36.792
36.462
36.125
35.788
35.454
35.168
34.923
34.644
34.323
34.039
33.82
33.617
33.435
33.338
33.51
34.244
35.622
37.341
38.912
39.972
40.413
40.328
39.951
39.493
39.054
38.604
38.094
37.575
37.146
36.909
36.861
36.93
37.024
37.037
36.922
36.723
36.47
36.163
35.816
35.46
35.142
34.864
34.583
34.304
34.043
33.803
33.576
33.344
33.098
32.88
32.908
33.537
34.858
36.606
38.281
39.488
40.075
40.136
39.862
39.426
38.919
38.367
37.817
37.313
36.898
36.598
36.446
36.446
36.538
36.593
36.541
36.373
36.122
35.809
35.487
35.185
34.902
34.638
34.357
34.072
33.792
33.512
33.251
33.039
32.846
32.704
32.797
33.437
34.77
36.57
38.353
39.635
40.206
40.181
39.825
39.327
38.786
38.233
37.666
37.088
36.61
36.319
36.217
36.265
36.381
36.466
36.452
36.324
36.104
35.844
35.576
35.276
34.935
34.578
34.219
33.888
33.604
33.375
33.158
32.923
32.707
32.568
32.734
33.523
35.042
36.978
38.778
40.013
40.522
40.419
39.941
39.34
38.764
38.219
37.673
37.129
36.644
36.316
36.182
36.222
36.365
36.498
36.52
36.395
36.151
35.838
35.486
35.126
34.762
34.439
34.189
33.955
33.681
33.396
33.149
32.929
32.695
32.541
32.834
33.899
35.643
37.607
39.253
40.248
40.562
40.381
39.904
39.288
38.623
37.958
37.325
36.778
36.379
36.182
36.205
36.342
36.477
36.547
36.535
36.397
36.113
35.75
35.393
35.087
34.797
34.506
34.218
33.928
33.663
33.416
33.161
32.903
32.698
32.795
33.567
35.127
37.115
38.983
40.316
40.935
40.905
40.439
39.782
39.108
38.486
37.897
37.33
36.854
36.562
36.478
36.561
36.735
36.86
36.829
36.648
36.389
36.122
35.823
35.484
35.143
34.843
34.587
34.348
34.113
33.878
33.64
33.374
33.136
33.225
34.017
35.583
37.557
39.405
40.717
41.323
41.268
40.788
40.144
39.471
38.841
38.254
37.687
37.185
36.842
36.736
36.853
37.056
37.213
37.236
37.116
36.876
36.532
36.128
35.739
35.383
35.038
34.712
34.446
34.254
34.046
33.731
33.341
33.061
33.221
34.157
35.898
37.994
39.885
41.161
41.68
41.55
41.025
40.352
39.687
39.067
38.457
37.893
37.469
37.246
37.19
37.236
37.343
37.431
37.404
37.227
36.95
36.62
36.264
35.898
35.532
35.175
34.84
34.511
34.193
33.91
33.651
33.384
33.177
33.331
34.207
35.864
37.927
39.82
41.105
41.669
41.644
41.257
40.666
40.001
39.343
38.712
38.135
37.656
37.315
37.179
37.253
37.449
37.619
37.616
37.412
37.068
36.686
36.306
35.958
35.616
35.247
34.889
34.583
34.331
34.06
33.732
33.407
33.206
33.359
34.218
35.881
37.991
39.979
41.325
41.83
41.685
41.211
40.622
40.007
39.392
38.75
38.128
37.6
37.248
37.127
37.192
37.321
37.379
37.317
37.148
36.883
36.529
36.17
35.801
35.412
35.067
34.765
34.448
34.126
33.802
33.489
33.21
33.023
33.123
33.817
35.31
37.386
39.475
41.04
41.817
41.886
41.474
40.832
40.151
39.487
38.82
38.154
37.552
37.135
36.949
36.951
37.06
37.182
37.189
37.006
36.69
36.325
35.963
35.601
35.216
34.828
34.476
34.191
33.93
33.694
33.463
33.191
32.916
32.733
32.922
33.862
35.664
37.898
39.893
41.194
41.693
41.535
40.986
40.278
39.561
38.9
38.241
37.613
37.097
36.753
36.608
36.616
36.719
36.816
36.803
36.659
36.41
36.066
35.644
35.227
34.861
34.532
34.236
33.954
33.662
33.359
33.056
32.777
32.523
32.406
32.796
34.062
36.135
38.435
40.314
41.385
41.636
41.301
40.652
39.932
39.229
38.514
37.816
37.236
36.833
36.63
36.584
36.664
36.788
36.841
36.756
36.556
36.287
35.95
35.57
35.167
34.745
34.337
33.97
33.678
33.459
33.27
33.052
32.802
32.587
32.705
33.58
35.35
37.605
39.68
41.067
41.624
41.514
40.985
40.286
39.582
38.883
38.197
37.53
36.956
36.604
36.527
36.681
36.901
37.022
36.983
36.823
36.554
36.162
35.713
35.256
34.817
34.439
34.152
33.911
33.675
33.437
33.187
32.904
32.646
32.665
33.371
34.969
37.164
39.347
40.975
41.772
41.79
41.297
40.584
39.821
39.09
38.422
37.816
37.273
36.872
36.721
36.774
36.914
37.014
37.002
36.85
36.535
36.135
35.716
35.329
34.981
34.64
34.294
33.953
33.661
33.435
33.211
32.929
32.623
32.486
32.913
34.235
36.31
38.566
40.393
41.416
41.652
41.332
40.715
40.015
39.34
38.673
37.983
37.354
36.882
36.61
36.551
36.652
36.808
36.882
36.806
36.587
36.251
35.84
35.387
34.933
34.527
34.178
33.877
33.606
33.34
33.077
32.813
32.543
32.358
32.635
33.766
35.759
38.09
40.077
41.302
41.707
41.498
40.901
40.145
39.425
38.756
38.082
37.437
36.944
36.685
36.624
36.688
36.788
36.834
36.787
36.65
36.371
35.957
35.519
35.104
34.706
34.304
33.934
33.641
33.397
33.153
32.878
32.574
32.311
32.397
33.249
34.99
37.243
39.397
40.946
41.68
41.667
41.15
40.415
39.661
38.953
38.275
37.622
37.036
36.634
36.499
36.583
36.758
36.898
36.885
36.7
36.435
36.124
35.757
35.339
34.909
34.517
34.182
33.888
33.597
33.291
32.976
32.672
32.413
32.329
32.769
34.071
36.157
38.484
40.368
41.403
41.595
41.194
40.519
39.794
39.134
38.505
37.855
37.227
36.741
36.497
36.49
36.615
36.756
36.834
36.754
36.533
36.19
35.761
35.294
34.836
34.451
34.132
33.862
33.59
33.302
33.017
32.752
32.491
32.331
32.603
33.688
35.656
38.034
40.103
41.39
41.804
41.543
40.928
40.222
39.504
38.792
38.083
37.449
37.006
36.779
36.726
36.785
36.865
36.89
36.817
36.632
36.334
35.958
35.569
35.182
34.797
34.449
34.147
33.887
33.666
33.418
33.132
32.806
32.517
32.527
33.333
35.155
37.559
39.805
41.289
41.864
41.745
41.227
40.536
39.825
39.163
38.527
37.893
37.318
36.928
36.756
36.778
36.922
37.05
37.05
36.865
36.532
36.12
35.706
35.332
34.998
34.696
34.385
34.043
33.715
33.445
33.173
32.868
32.6
32.675
33.534
35.335
37.664
39.837
41.306
41.868
41.688
41.12
40.439
39.77
39.107
38.441
37.806
37.244
36.853
36.717
36.749
36.857
36.951
36.925
36.758
36.483
36.116
35.653
35.167
34.746
34.417
34.127
33.831
33.516
33.19
32.874
32.613
32.474
32.765
33.891
35.832
38.107
40.122
41.435
41.895
41.673
41.079
40.377
39.681
39.001
38.345
37.744
37.259
36.966
36.889
36.987
37.126
37.18
37.09
36.869
36.543
36.178
35.808
35.436
35.066
34.702
34.325
33.968
33.669
33.397
33.111
32.869
32.827
33.28
34.562
36.636
38.987
40.924
42.04
42.299
41.94
41.308
40.629
40.007
39.421
38.78
38.134
37.645
37.418
37.427
37.536
37.608
37.559
37.406
37.158
36.832
36.453
36.059
35.674
35.329
35.022
34.735
34.449
34.162
33.879
33.626
33.385
33.277
33.707
35.051
37.16
39.469
41.367
42.462
42.732
42.411
41.813
41.182
40.615
40.079
39.491
38.874
38.303
37.936
37.812
37.832
37.868
37.857
37.774
37.544
37.17
36.748
36.331
35.931
35.548
35.181
34.846
34.557
34.325
34.097
33.809
33.505
33.333
33.652
34.811
36.758
39.023
41.034
42.326
42.752
42.55
42.06
41.485
40.926
40.399
39.843
39.243
38.666
38.225
38.0
37.954
37.973
37.958
37.842
37.601
37.227
36.76
36.291
35.887
35.542
35.173
34.771
34.401
34.11
33.858
33.572
33.278
33.065
33.193
34.052
35.781
38.019
40.172
41.712
42.435
42.46
42.061
41.517
40.998
40.498
39.946
39.3
38.652
38.118
37.786
37.663
37.664
37.651
37.508
37.255
36.94
36.576
36.178
35.758
35.324
34.917
34.512
34.103
33.724
33.386
33.079
32.812
32.613
32.593
33.072
34.374
36.418
38.715
40.652
41.808
42.139
41.885
41.354
40.746
40.166
39.64
39.082
38.474
37.877
37.386
37.11
37.069
37.109
37.106
36.993
36.748
36.388
35.942
35.458
34.981
34.553
34.185
33.858
33.555
33.282
33.024
32.762
32.467
32.167
32.106
32.733
34.282
36.538
38.904
40.717
41.637
41.765
41.41
40.873
40.337
39.828
39.269
38.625
37.927
37.313
36.894
36.672
36.618
36.626
36.574
36.416
36.125
35.735
35.315
34.929
34.578
34.227
33.859
33.468
33.087
32.743
32.443
32.175
31.916
31.679
31.578
31.911
33.06
35.093
37.514
39.569
40.786
41.142
40.881
40.307
39.688
39.135
38.601
38.005
37.347
36.732
36.319
36.158
36.151
36.225
36.27
36.174
35.942
35.624
35.253
34.843
34.415
34.015
33.67
33.353
33.064
32.828
32.63
32.429
32.187
31.915
31.738
31.914
32.796
34.519
36.751
38.854
40.252
40.781
40.641
40.146
39.547
38.972
38.444
37.898
37.327
36.817
36.459
36.272
36.244
36.314
36.383
36.351
36.162
35.838
35.458
35.07
34.701
34.377
34.081
33.76
33.386
33.054
32.825
32.66
32.482
32.253
32.118
32.501
33.744
35.724
37.879
39.622
40.582
40.735
40.353
39.731
39.103
38.586
38.102
37.579
37.023
36.527
36.214
36.144
36.242
36.376
36.419
36.333
36.145
35.858
35.459
35.01
34.619
34.31
34.065
33.814
33.533
33.273
33.032
32.819
32.6
32.387
32.402
32.992
34.449
36.598
38.836
40.526
41.35
41.396
40.989
40.438
39.93
39.499
39.075
38.586
38.071
37.648
37.401
37.355
37.421
37.492
37.475
37.306
37.007
36.684
36.368
36.033
35.675
35.356
35.069
34.782
34.477
34.179
33.905
33.648
33.403
33.24
33.407
34.282
35.936
38.017
39.911
41.135
41.585
41.465
41.064
40.59
40.119
39.684
39.23
38.728
38.272
37.921
37.74
37.75
37.841
37.854
37.719
37.453
37.101
36.726
36.348
35.989
35.65
35.329
35.018
34.72
34.469
34.253
34.037
33.8
33.557
33.435
33.77
34.89
36.713
38.737
40.445
41.496
41.807
41.576
41.113
40.647
40.262
39.895
39.432
38.855
38.283
37.856
37.633
37.577
37.598
37.596
37.479
37.225
36.89
36.522
36.143
35.786
35.448
35.129
34.835
34.576
34.319
34.059
33.838
33.63
33.42
33.272
33.388
34.092
35.562
37.519
39.397
40.722
41.341
41.345
40.995
40.558
40.134
39.69
39.164
38.576
37.985
37.519
37.283
37.255
37.34
37.398
37.336
37.135
36.82
36.429
36.019
35.637
35.286
34.969
34.719
34.514
34.314
34.093
33.876
33.675
33.454
33.23
33.103
33.334
34.22
35.788
37.725
39.483
40.597
40.968
40.794
40.368
39.94
39.625
39.326
38.898
38.316
37.681
37.22
37.08
37.157
37.246
37.249
37.168
37.0
36.709
36.314
35.913
35.582
35.3
35.047
34.792
34.508
34.208
33.924
33.692
33.464
33.233
33.047
33.083
33.701
35.045
36.891
38.748
40.119
40.71
40.623
40.192
39.679
39.22
38.839
38.442
37.977
37.501
37.129
36.91
36.83
36.837
36.842
36.804
36.664
36.396
36.036
35.65
35.267
34.91
34.601
34.324
34.045
33.771
33.527
33.299
33.058
32.805
32.574
32.497
32.874
33.956
35.644
37.522
39.084
40.003
40.242
39.962
39.447
38.95
38.566
38.22
37.809
37.31
36.816
36.46
36.335
36.413
36.553
36.59
36.429
36.142
35.84
35.573
35.273
34.893
34.498
34.18
33.929
33.716
33.539
33.35
33.117
32.829
32.514
32.297
32.387
33.065
34.452
36.281
38.035
39.291
39.879
39.919
39.65
39.246
38.797
38.355
37.904
37.44
37.028
36.71
36.523
36.483
36.548
36.59
36.524
36.359
36.113
35.802
35.46
35.138
34.876
34.65
34.415
34.176
33.929
33.689
33.465
33.236
32.971
32.811
33.066
33.99
35.551
37.356
38.916
39.876
40.18
40.007
39.61
39.161
38.709
38.215
37.677
37.151
36.76
36.618
36.7
36.851
36.911
36.829
36.654
36.392
36.066
35.729
35.406
35.104
34.859
34.652
34.442
34.193
33.945
33.722
33.52
33.328
33.17
33.224
33.798
35.041
36.745
38.447
39.746
40.45
40.615
40.438
40.136
39.813
39.459
39.035
38.537
38.066
37.723
37.537
37.476
37.453
37.429
37.363
37.216
36.991
36.719
36.42
36.098
35.781
35.507
35.264
35.012
34.748
34.505
34.256
34.02
33.814
33.69
33.857
34.631
36.064
37.767
39.253
40.22
40.63
40.624
40.388
40.063
39.716
39.309
38.816
38.275
37.785
37.451
37.305
37.259
37.247
37.237
37.162
36.956
36.635
36.229
35.8
35.392
35.022
34.68
34.354
34.064
33.813
33.564
33.275
32.974
32.753
32.767
33.262
34.381
35.961
37.617
38.947
39.705
39.899
39.738
39.445
39.138
38.813
38.406
37.921
37.428
37.03
36.812
36.741
36.752
36.738
36.657
36.475
36.183
35.848
35.537
35.245
34.995
34.77
34.526
34.263
34.011
33.787
33.597
33.448
33.296
33.135
33.052
33.29
34.108
35.524
37.259
38.826
39.845
40.238
40.196
40.005
39.805
39.622
39.417
39.093
38.636
38.154
37.776
37.57
37.506
37.479
37.411
37.262
37.024
36.744
36.467
36.213
35.962
35.686
35.4
35.124
34.867
34.653
34.471
34.29
34.104
33.881
33.65
33.578
33.889
34.777
36.205
37.84
39.317
40.321
40.804
40.894
40.806
40.682
40.561
40.407
40.091
39.593
39.047
38.635
38.4
38.299
38.252
38.186
38.05
37.836
37.546
37.254
36.984
36.713
36.442
36.162
35.88
35.631
35.45
35.304
35.176
35.06
34.916
34.725
34.565
34.579
34.977
35.948
37.393
38.98
40.316
41.182
41.584
41.635
41.501
41.344
41.199
40.996
40.638
40.123
39.542
39.057
38.755
38.618
38.583
38.538
38.387
38.099
37.725
37.338
36.989
36.676
36.372
36.076
35.777
35.503
35.275
35.098
34.932
34.739
34.554
34.408
34.267
34.093
33.967
34.108
34.803
36.096
37.699
39.159
40.171
40.69
40.821
40.723
40.542
40.363
40.178
39.871
39.395
38.813
38.255
37.867
37.683
37.639
37.608
37.507
37.299
36.966
36.573
36.189
35.858
35.584
35.329
35.062
34.797
34.559
34.354
34.162
33.985
33.836
33.702
33.556
33.397
33.233
33.09
33.085
33.491
34.545
36.147
37.796
39.042
39.746
39.979
39.923
39.78
39.634
39.497
39.323
38.998
38.482
37.885
37.407
37.144
37.072
37.068
37.027
36.903
36.688
36.362
35.985
35.64
35.354
35.08
34.787
34.511
34.282
34.091
33.922
33.748
33.599
33.475
33.332
33.144
32.922
32.734
32.621
32.709
33.207
34.26
35.744
37.255
38.366
38.893
38.938
38.744
38.548
38.42
38.27
38.034
37.687
37.241
36.794
36.495
36.418
36.456
36.455
36.371
36.207
35.979
35.694
35.377
35.061
34.795
34.58
34.384
34.195
34.006
33.832
33.698
33.601
33.515
33.427
33.326
33.208
33.085
33.017
33.142
33.654
34.627
35.887
37.089
37.935
38.342
38.371
38.164
37.877
37.604
37.382
37.149
36.82
36.376
35.926
35.624
35.521
35.525
35.538
35.508
35.403
35.21
34.976
34.753
34.503
34.201
33.9
33.645
33.428
33.233
33.062
32.929
32.815
32.696
32.573
32.415
32.215
32.0
31.882
32.104
32.91
34.291
35.846
37.087
37.74
37.831
37.585
37.25
36.967
36.719
36.452
36.124
35.734
35.377
35.124
35.015
35.03
35.085
35.098
35.039
34.887
34.653
34.363
34.032
33.715
33.462
33.276
33.13
33.0
32.868
32.741
32.633
32.493
32.324
32.139
31.955
31.821
31.803
32.079
32.897
34.24
35.789
37.122
37.934
38.153
37.982
37.678
37.394
37.117
36.828
36.55
36.255
35.969
35.734
35.603
35.594
35.665
35.759
35.808
35.775
35.642
35.431
35.214
35.033
34.879
34.728
34.548
34.351
34.147
33.96
33.816
33.714
33.635
33.525
33.344
33.147
33.077
33.395
34.346
35.846
37.465
38.767
39.473
39.569
39.277
38.89
38.6
38.368
38.079
37.729
37.374
37.051
36.821
36.708
36.696
36.711
36.692
36.624
36.481
36.249
35.951
35.642
35.38
35.16
34.959
34.767
34.611
34.462
34.312
34.167
33.999
33.828
33.689
33.568
33.466
33.504
33.937
34.983
36.532
38.165
39.43
40.129
40.32
40.216
40.019
39.837
39.69
39.498
39.188
38.771
38.365
38.092
37.991
38.017
38.101
38.142
38.08
37.922
37.671
37.351
37.024
36.719
36.441
36.187
35.934
35.723
35.554
35.395
35.205
34.979
34.773
34.611
34.505
34.458
34.573
35.12
36.251
37.749
39.205
40.253
40.767
40.854
40.719
40.53
40.405
40.332
40.182
39.842
39.36
38.877
38.528
38.352
38.297
38.297
38.289
38.189
37.979
37.698
37.4
37.108
36.809
36.504
36.225
35.98
35.753
35.536
35.336
35.166
35.021
34.874
34.706
34.521
34.338
34.264
34.486
35.247
36.579
38.153
39.517
40.379
40.713
40.728
40.648
40.579
40.536
40.44
40.214
39.832
39.357
38.899
38.578
38.438
38.397
38.358
38.269
38.108
37.883
37.612
37.304
37.01
36.72
36.436
36.167
35.914
35.666
35.429
35.195
34.971
34.788
34.635
34.507
34.39
34.251
34.061
33.867
33.743
33.824
34.334
35.406
36.887
38.379
39.48
40.034
40.168
40.132
40.105
40.131
40.123
39.981
39.67
39.222
38.74
38.34
38.084
37.978
37.961
37.926
37.776
37.518
37.237
36.973
36.719
36.441
36.133
35.811
35.529
35.295
35.084
34.908
34.759
34.617
34.473
34.333
34.19
34.042
33.908
33.789
33.644
33.459
33.346
33.486
34.066
35.173
36.627
38.071
39.173
39.8
40.032
40.052
40.014
39.979
39.946
39.812
39.537
39.132
38.679
38.309
38.095
38.044
38.081
38.091
37.999
37.801
37.524
37.223
36.936
36.639
36.356
36.126
35.912
35.659
35.362
35.099
34.925
34.811
34.7
34.561
34.364
34.175
34.05
33.982
33.88
33.683
33.454
33.295
33.329
33.773
34.757
36.172
37.678
38.887
39.6
39.893
39.964
39.96
39.954
39.948
39.888
39.692
39.299
38.786
38.343
38.097
38.027
38.023
37.982
37.872
37.736
37.573
37.368
37.104
36.798
36.485
36.232
36.083
35.999
35.896
35.704
35.484
35.323
35.202
35.118
35.054
34.989
34.919
34.854
34.799
34.751
34.677
34.592
34.508
34.346
34.123
33.935
33.864
34.065
34.726
35.927
37.481
39.003
40.175
40.892
41.255
41.457
41.644
41.855
42.04
42.095
41.935
41.55
41.031
40.538
40.187
39.984
39.865
39.738
39.535
39.253
38.943
38.624
38.287
37.922
37.552
37.207
36.868
36.523
36.177
35.818
35.493
35.18
34.865
34.57
34.307
34.059
33.799
33.532
33.288
33.082
32.92
32.773
32.591
32.362
32.118
31.869
31.679
31.754
32.347
33.544
35.163
36.815
38.148
38.999
39.424
39.606
39.707
39.814
39.936
40.014
39.928
39.556
38.933
38.264
37.736
37.421
37.31
37.324
37.356
37.308
37.121
36.819
36.478
36.131
35.801
35.518
35.271
35.034
34.779
34.514
34.247
34.007
33.818
33.679
33.541
33.406
33.275
33.112
32.89
32.619
32.347
32.139
32.031
32.142
32.634
33.594
34.888
36.225
37.307
37.967
38.238
38.26
38.189
38.104
37.975
37.735
37.337
36.799
36.272
35.918
35.8
35.823
35.878
35.913
35.901
35.845
35.744
35.571
35.308
35.016
34.732
34.48
34.251
34.018
33.82
33.673
33.573
33.509
33.438
33.31
33.152
32.998
32.824
32.678
32.644
32.857
33.49
34.599
35.986
37.335
38.352
38.919
39.139
39.199
39.239
39.309
39.344
39.257
38.994
38.561
38.051
37.578
37.249
37.12
37.113
37.113
37.038
36.848
36.592
36.285
35.926
35.551
35.202
34.88
34.627
34.434
34.269
34.124
34.016
34.008
34.076
34.073
33.888
33.56
33.25
33.111
33.127
33.178
33.144
33.041
33.111
33.714
34.938
36.518
38.065
39.237
39.947
40.361
40.662
40.893
41.021
41.054
41.014
40.85
40.513
39.963
39.263
38.562
38.004
37.682
37.574
37.547
37.469
37.302
37.105
36.873
36.568
36.173
35.738
35.359
35.098
34.913
34.723
34.493
34.265
34.043
33.822
33.599
33.37
33.149
32.955
32.798
32.679
32.567
32.512
32.755
33.54
34.821
36.266
37.493
38.319
38.8
39.091
39.304
39.506
39.699
39.841
39.87
39.714
39.341
38.801
38.187
37.593
37.119
36.804
36.628
36.555
36.497
36.381
36.175
35.874
35.503
35.112
34.793
34.572
34.369
34.127
33.833
33.547
33.3
33.068
32.82
32.578
32.433
32.508
32.968
33.878
35.096
36.297
37.234
37.84
38.171
38.336
38.438
38.494
38.491
38.426
38.254
37.945
37.51
36.995
36.469
36.031
35.744
35.606
35.584
35.582
35.498
35.326
35.085
34.812
34.555
34.319
34.085
33.821
33.534
33.283
33.078
32.895
32.724
32.548
32.332
32.115
31.992
32.148
32.728
33.769
35.114
36.41
37.339
37.823
38.006
38.032
38.033
38.108
38.228
38.288
38.192
37.921
37.507
37.025
36.542
36.132
35.873
35.758
35.711
35.681
35.595
35.405
35.111
34.791
34.5
34.247
34.014
33.764
33.473
33.158
32.888
32.689
32.568
32.503
32.427
32.32
32.196
32.092
32.011
31.954
31.872
31.718
31.552
31.522
31.853
32.705
34.004
35.447
36.693
37.523
37.939
38.109
38.183
38.289
38.412
38.504
38.538
38.469
38.22
37.768
37.175
36.613
36.234
36.025
35.874
35.734
35.626
35.539
35.432
35.272
35.053
34.766
34.427
34.117
33.884
33.715
33.576
33.425
33.253
33.082
32.94
32.816
32.694
32.538
32.357
32.208
32.2
32.511
33.27
34.42
35.708
36.796
37.469
37.738
37.746
37.694
37.707
37.789
37.828
37.736
37.507
37.144
36.665
36.131
35.678
35.422
35.402
35.506
35.56
35.505
35.362
35.166
34.964
34.728
34.456
34.204
33.995
33.819
33.63
33.419
33.226
33.112
33.033
32.895
32.687
32.461
32.289
32.306
32.648
33.395
34.494
35.705
36.707
37.341
37.65
37.759
37.794
37.798
37.781
37.768
37.716
37.54
37.184
36.699
36.206
35.839
35.666
35.641
35.68
35.715
35.697
35.582
35.376
35.141
34.91
34.675
34.465
34.299
34.154
33.975
33.78
33.594
33.404
33.229
33.123
33.074
33.026
32.927
32.757
32.566
32.44
32.444
32.688
33.313
34.377
35.741
37.062
38.061
38.661
38.948
39.077
39.159
39.258
39.386
39.478
39.44
39.206
38.821
38.365
37.918
37.574
37.336
37.179
37.077
37.008
36.942
36.827
36.637
36.421
36.17
35.85
35.498
35.157
34.863
34.628
34.435
34.269
34.091
33.902
33.729
33.576
33.453
33.328
33.197
33.045
32.895
32.803
32.875
33.302
34.23
35.529
36.907
38.037
38.742
39.06
39.146
39.175
39.261
39.4
39.498
39.505
39.354
38.995
38.468
37.907
37.442
37.143
37.012
36.944
36.808
36.588
36.345
36.118
35.915
35.697
35.429
35.094
34.717
34.376
34.104
33.871
33.661
33.509
33.444
33.439
33.411
33.273
33.034
32.747
32.491
32.306
32.187
32.247
32.656
33.535
34.768
36.052
37.053
37.585
37.675
37.522
37.368
37.329
37.351
37.32
37.2
37.046
36.861
36.605
36.314
36.06
35.901
35.887
35.942
35.978
35.914
35.736
35.508
35.268
35.015
34.738
34.423
34.072
33.742
33.472
33.283
33.166
33.078
32.972
32.826
32.654
32.503
32.427
32.589
33.168
34.202
35.491
36.649
37.39
37.699
37.745
37.663
37.538
37.421
37.275
37.041
36.678
36.178
35.631
35.165
34.858
34.712
34.658
34.631
34.563
34.433
34.268
34.122
34.009
33.897
33.752
33.544
33.3
33.041
32.782
32.543
32.339
32.181
32.092
32.064
32.09
32.139
32.157
32.122
32.053
31.971
31.915
32.012
32.478
33.463
34.821
36.198
37.27
37.887
38.056
37.957
37.805
37.712
37.678
37.623
37.516
37.333
37.048
36.673
36.225
35.764
35.408
35.225
35.17
35.151
35.095
34.981
34.824
34.63
34.449
34.322
34.201
33.994
33.721
33.483
33.356
33.299
33.216
33.077
32.944
32.867
32.816
32.76
32.665
32.49
32.314
32.214
32.342
32.912
33.933
35.152
36.214
36.875
37.097
37.025
36.835
36.681
36.607
36.572
36.523
36.431
36.259
35.981
35.635
35.331
35.148
35.051
35.017
35.053
35.121
35.146
35.049
34.837
34.578
34.352
34.176
34.026
33.885
33.75
33.613
33.49
33.365
33.235
33.141
33.096
33.053
32.937
32.772
32.634
32.617
32.857
33.501
34.55
35.768
36.819
37.487
37.729
37.649
37.403
37.137
36.925
36.739
36.534
36.281
35.981
35.63
35.287
35.043
34.95
34.99
35.087
35.17
35.218
35.247
35.273
35.266
35.168
35.0
34.801
34.615
34.475
34.372
34.316
34.28
34.243
34.169
34.035
33.848
33.643
33.498
33.548
33.98
34.891
36.157
37.444
38.377
38.83
38.864
38.641
38.34
38.071
37.858
37.68
37.481
37.195
36.821
36.408
36.05
35.848
35.825
35.911
36.011
36.091
36.092
35.993
35.845
35.669
35.48
35.28
35.078
34.859
34.599
34.363
34.182
34.035
33.899
33.765
33.633
33.524
33.421
33.306
33.179
33.11
33.328
34.136
35.557
37.235
38.66
39.516
39.783
39.659
39.359
39.047
38.806
38.61
38.387
38.124
37.85
37.557
37.21
36.856
36.576
36.417
36.356
36.33
36.276
36.157
35.968
35.73
35.47
35.212
34.981
34.776
34.592
34.445
34.326
34.207
34.1
33.989
33.845
33.705
33.623
33.572
33.502
33.431
33.588
34.293
35.619
37.257
38.676
39.552
39.89
39.842
39.637
39.461
39.364
39.274
39.104
38.831
38.468
38.042
37.578
37.123
36.778
36.606
36.606
36.716
36.819
36.816
36.722
36.539
36.257
35.921
35.595
35.312
35.058
34.815
34.582
34.353
34.131
33.927
33.737
33.535
33.329
33.144
32.998
32.939
33.158
33.963
35.416
37.146
38.666
39.652
40.082
40.129
39.983
39.786
39.574
39.357
39.117
38.819
38.448
38.023
37.586
37.206
36.94
36.81
36.75
36.718
36.7
36.649
36.515
36.271
35.949
35.656
35.442
35.278
35.096
34.876
34.621
34.399
34.252
34.138
33.993
33.845
33.894
34.446
35.609
37.168
38.716
39.855
40.397
40.454
40.216
39.87
39.547
39.262
38.984
38.647
38.236
37.768
37.308
36.959
36.778
36.761
36.836
36.901
36.881
36.764
36.562
36.333
36.112
35.859
35.546
35.251
35.044
34.87
34.68
34.465
34.22
33.958
33.733
33.68
34.074
35.15
36.799
38.557
39.926
40.702
40.955
40.885
40.677
40.406
40.123
39.825
39.519
39.18
38.758
38.257
37.756
37.359
37.146
37.095
37.109
37.097
37.01
36.843
36.619
36.367
36.089
35.789
35.514
35.304
35.149
35.003
34.812
34.557
34.281
34.088
34.013
34.202
34.895
36.134
37.697
39.215
40.371
41.068
41.378
41.436
41.366
41.289
41.211
41.069
40.81
40.433
40.003
39.586
39.221
38.917
38.709
38.611
38.576
38.541
38.471
38.353
38.173
37.964
37.744
37.501
37.227
36.907
36.534
36.122
35.703
35.308
34.918
34.534
34.345
34.765
36.006
37.727
39.355
40.532
41.195
41.493
41.602
41.626
41.607
41.576
41.543
41.434
41.177
40.788
40.308
39.827
39.429
39.147
38.994
38.921
38.865
38.783
38.614
38.344
37.986
37.588
37.203
36.835
36.497
36.21
35.945
35.63
35.275
34.985
34.873
35.138
35.987
37.426
39.16
40.739
41.868
42.494
42.697
42.633
42.441
42.21
41.964
41.669
41.251
40.704
40.088
39.462
38.888
38.461
38.213
38.065
37.935
37.793
37.565
37.242
36.883
36.537
36.191
35.839
35.492
35.173
34.852
34.503
34.15
33.822
33.562
33.378
33.391
33.905
35.167
37.027
38.977
40.508
41.397
41.713
41.672
41.427
41.064
40.69
40.322
39.892
39.34
38.692
38.016
37.432
37.038
36.82
36.724
36.695
36.671
36.602
36.399
36.083
35.731
35.382
35.042
34.714
34.377
34.017
33.682
33.398
33.14
32.903
32.687
32.489
32.288
32.078
31.984
32.341
33.481
35.341
37.436
39.198
40.337
40.858
40.915
40.716
40.451
40.211
39.998
39.746
39.397
38.94
38.417
37.918
37.508
37.237
37.133
37.119
37.07
36.923
36.668
36.332
35.946
35.527
35.126
34.761
34.399
34.041
33.705
33.426
33.197
32.949
32.69
32.495
32.636
33.462
35.04
37.026
38.854
40.117
40.705
40.813
40.658
40.398
40.128
39.852
39.501
38.979
38.319
37.651
37.105
36.765
36.638
36.66
36.713
36.671
36.508
36.227
35.873
35.491
35.087
34.672
34.291
33.968
33.671
33.383
33.1
32.812
32.532
32.263
31.992
31.767
31.86
32.723
34.533
36.882
39.074
40.618
41.437
41.723
41.72
41.587
41.384
41.13
40.83
40.472
39.999
39.389
38.731
38.155
37.727
37.461
37.332
37.303
37.226
37.025
36.719
36.351
35.94
35.516
35.087
34.639
34.206
33.833
33.519
33.23
32.94
32.65
32.383
32.153
31.951
31.741
31.576
31.749
32.717
34.653
37.126
39.401
40.965
41.738
41.963
41.912
41.778
41.615
41.395
41.091
40.67
40.128
39.5
38.873
38.281
37.776
37.442
37.267
37.201
37.16
37.031
36.751
36.356
35.921
35.477
35.019
34.533
34.042
33.591
33.218
32.929
32.686
32.431
32.141
31.865
31.634
31.433
31.265
31.316
31.992
33.629
36.047
38.56
40.495
41.567
41.897
41.818
41.591
41.365
41.148
40.848
40.407
39.803
39.065
38.316
37.691
37.269
37.06
36.979
36.949
36.888
36.776
36.592
36.308
35.903
35.418
34.926
34.457
34.025
33.649
33.344
33.093
32.875
32.655
32.383
32.055
31.812
32.015
33.112
35.158
37.625
39.768
41.109
41.605
41.539
41.221
40.815
40.372
39.917
39.423
38.84
38.143
37.391
36.726
36.307
36.168
36.248
36.409
36.515
36.481
36.267
35.918
35.495
35.024
34.527
34.053
33.667
33.346
33.042
32.723
32.365
32.025
31.739
31.513
31.356
31.269
31.435
32.309
34.201
36.816
39.384
41.254
42.208
42.425
42.262
41.978
41.677
41.375
41.04
40.656
40.169
39.539
38.853
38.248
37.844
37.664
37.609
37.551
37.443
37.266
37.008
36.663
36.222
35.727
35.249
34.817
34.432
34.099
33.785
33.479
33.205
32.985
32.772
32.523
32.26
32.002
31.751
31.676
32.245
33.868
36.358
39.014
41.151
42.448
43.006
43.072
42.906
42.707
42.555
42.376
42.08
41.635
41.021
40.303
39.59
38.987
38.582
38.356
38.235
38.136
37.992
37.759
37.432
37.003
36.506
35.983
35.47
35.015
34.598
34.175
33.743
33.365
33.089
32.876
32.653
32.378
32.069
31.768
31.474
31.212
31.206
31.975
33.889
36.637
39.385
41.4
42.464
42.799
42.751
42.575
42.377
42.183
41.952
41.62
41.124
40.43
39.616
38.876
38.352
38.056
37.895
37.773
37.625
37.43
37.167
36.807
36.33
35.766
35.189
34.649
34.146
33.698
33.295
32.945
32.649
32.388
32.148
31.928
31.709
31.45
31.177
30.924
30.77
31.037
32.245
34.554
37.415
39.993
41.696
42.429
42.424
42.039
41.572
41.168
40.833
40.489
40.043
39.444
38.729
38.013
37.425
37.05
36.905
36.89
36.89
36.853
36.73
36.473
36.075
35.574
35.024
34.483
33.988
33.538
33.152
32.839
32.579
32.357
32.181
31.997
31.752
31.451
31.27
31.676
33.122
35.498
38.12
40.231
41.467
41.921
41.897
41.614
41.177
40.672
40.147
39.545
38.785
37.848
36.901
36.208
35.949
36.113
36.471
36.794
36.947
36.89
36.638
36.221
35.657
35.037
34.467
34.046
33.796
33.66
33.576
33.511
33.453
33.401
33.315
33.146
32.85
32.403
31.854
31.283
30.819
30.738
31.543
33.566
36.493
39.408
41.452
42.383
42.538
42.451
42.487
42.687
42.904
43.01
42.915
42.543
41.841
40.872
39.888
39.163
38.817
38.813
38.996
39.173
39.2
39.033
38.653
38.007
37.113
36.061
34.951
33.916
33.046
32.37
31.898
31.62
31.488
31.419
31.333
31.183
30.945
30.653
30.478
30.789
32.066
34.417
37.275
39.781
41.356
41.918
41.791
41.363
40.874
40.432
40.035
39.589
38.997
38.283
37.529
36.84
36.324
36.099
36.156
36.327
36.472
36.501
36.399
36.167
35.793
35.291
34.699
34.008
33.254
32.525
31.876
31.35
30.972
30.745
30.609
30.513
30.447
30.606
31.479
33.445
36.252
39.134
41.313
42.472
42.754
42.507
42.033
41.554
41.143
40.749
40.269
39.649
38.898
38.075
37.32
36.702
36.27
36.064
36.009
35.988
35.863
35.571
35.161
34.674
34.144
33.596
33.024
32.457
31.964
31.555
31.195
30.863
30.56
30.269
29.967
29.689
29.662
30.401
32.438
35.606
38.961
41.507
42.83
43.104
42.803
42.343
41.943
41.598
41.258
40.824
40.209
39.429
38.566
37.727
37.077
36.711
36.583
36.594
36.654
36.653
36.5
36.192
35.729
35.157
34.57
34.027
33.55
33.14
32.789
32.46
32.127
31.773
31.414
31.173
31.395
32.551
34.79
37.626
40.254
42.044
42.865
42.961
42.673
42.272
41.907
41.57
41.17
40.649
39.94
39.071
38.211
37.492
36.997
36.769
36.7
36.674
36.603
36.405
36.089
35.689
35.233
34.726
34.195
33.708
33.25
32.829
32.457
32.139
31.84
31.536
31.245
30.989
30.874
31.199
32.497
34.956
38.026
40.793
42.638
43.446
43.504
43.223
42.915
42.651
42.356
41.999
41.54
40.912
40.152
39.361
38.624
37.989
37.544
37.295
37.142
37.003
36.827
36.571
36.182
35.68
35.125
34.585
34.081
33.601
33.127
32.697
32.345
32.058
31.781
31.461
31.108
30.771
30.546
30.655
31.548
33.552
36.417
39.34
41.532
42.686
42.962
42.746
42.387
42.048
41.73
41.4
40.993
40.42
39.659
38.806
38.005
37.376
36.984
36.826
36.803
36.78
36.662
36.397
35.975
35.46
34.924
34.401
33.926
33.524
33.179
32.858
32.528
32.18
31.831
31.517
31.22
30.915
30.681
30.855
31.929
34.118
36.983
39.683
41.544
42.381
42.425
42.091
41.672
41.263
40.837
40.39
39.845
39.119
38.275
37.431
36.756
36.376
36.284
36.363
36.506
36.574
36.465
36.167
35.715
35.183
34.623
34.09
33.606
33.169
32.781
32.44
32.132
31.828
31.503
31.133
30.842
31.006
32.14
34.371
37.162
39.698
41.428
42.177
42.135
41.693
41.17
40.688
40.214
39.685
38.968
38.054
37.116
36.353
35.858
35.677
35.75
35.905
36.017
36.02
35.885
35.607
35.214
34.738
34.249
33.782
33.34
32.934
32.54
32.172
31.815
31.484
31.159
30.865
30.696
30.955
32.098
34.331
37.237
39.975
41.869
42.771
42.946
42.744
42.407
42.03
41.594
41.065
40.448
39.782
39.084
38.42
37.858
37.45
37.219
37.13
37.093
36.995
36.78
36.479
36.124
35.737
35.324
34.912
34.5
34.098
33.736
33.438
33.173
32.907
32.64
32.383
32.1
31.793
31.577
31.803
32.969
35.239
38.087
40.682
42.479
43.354
43.502
43.283
42.983
42.711
42.463
42.203
41.854
41.364
40.736
40.015
39.289
38.691
38.268
37.947
37.692
37.487
37.339
37.185
36.97
36.675
36.285
35.806
35.258
34.667
34.113
33.648
33.28
32.994
32.75
32.535
32.332
32.103
31.836
31.76
32.369
34.011
36.495
39.161
41.282
42.549
43.061
43.065
42.849
42.608
42.397
42.113
41.671
41.085
40.404
39.668
38.95
38.368
37.968
37.735
37.595
37.474
37.289
37.001
36.615
36.156
35.695
35.237
34.707
34.112
33.515
32.981
32.562
32.261
32.034
31.801
31.522
31.235
30.935
30.622
30.441
30.878
32.468
35.175
38.242
40.726
42.128
42.519
42.331
41.966
41.641
41.342
40.972
40.477
39.826
38.967
37.929
36.89
36.005
35.346
34.933
34.732
34.671
34.633
34.55
34.414
34.234
34.008
33.679
33.205
32.661
32.152
31.731
31.353
31.026
30.771
30.57
30.389
30.157
29.846
29.584
29.721
30.809
33.125
36.235
39.249
41.415
42.496
42.713
42.458
42.044
41.672
41.371
40.998
40.406
39.559
38.616
37.789
37.132
36.644
36.317
36.18
36.191
36.205
36.082
35.802
35.43
34.981
34.467
33.951
33.475
33.043
32.625
32.223
31.852
31.519
31.203
30.928
30.701
30.646
31.176
32.768
35.391
38.373
40.853
42.345
42.911
42.876
42.499
41.97
41.429
40.899
40.316
39.556
38.617
37.67
36.847
36.223
35.834
35.675
35.685
35.737
35.723
35.568
35.227
34.706
34.099
33.492
32.929
32.418
31.943
31.479
31.009
30.567
30.121
29.639
29.172
28.969
29.575
31.557
34.826
38.47
41.399
43.051
43.51
43.203
42.576
41.893
41.256
40.633
39.953
39.169
38.271
37.337
36.532
35.963
35.663
35.628
35.756
35.848
35.776
35.527
35.132
34.658
34.14
33.57
32.942
32.298
31.711
31.187
30.738
30.39
30.112
29.856
29.641
29.588
30.073
31.689
34.634
38.244
41.422
43.453
44.27
44.284
43.999
43.707
43.465
43.21
42.862
42.33
41.597
40.736
39.812
38.924
38.179
37.656
37.359
37.22
37.119
36.928
36.614
36.197
35.725
35.209
34.695
34.23
33.815
33.41
32.991
32.571
32.209
31.872
31.494
31.108
30.943
31.478
33.243
36.176
39.443
42.094
43.625
44.109
43.946
43.551
43.118
42.691
42.276
41.843
41.263
40.454
39.473
38.47
37.632
37.078
36.761
36.557
36.385
36.173
35.886
35.469
34.93
34.336
33.748
33.189
32.639
32.094
31.624
31.254
30.986
30.76
30.486
30.18
29.915
29.728
29.774
30.521
32.47
35.57
38.967
41.679
43.202
43.578
43.282
42.79
42.286
41.791
41.246
40.597
39.849
39.027
38.174
37.373
36.681
36.209
36.005
35.988
35.978
35.853
35.592
35.22
34.755
34.213
33.669
33.151
32.639
32.149
31.696
31.283
30.904
30.552
30.266
30.026
29.81
29.61
29.425
29.293
29.483
30.539
32.915
36.285
39.666
42.126
43.258
43.292
42.743
42.023
41.313
40.607
39.897
39.112
38.189
37.225
36.377
35.804
35.54
35.467
35.468
35.484
35.427
35.241
34.904
34.461
33.963
33.427
32.88
32.382
31.97
31.618
31.276
30.953
30.667
30.424
30.225
30.046
29.853
29.691
29.764
30.561
32.569
35.688
39.08
41.7
43.046
43.204
42.628
41.77
40.834
39.881
38.892
37.819
36.741
35.856
35.293
35.056
35.042
35.158
35.298
35.399
35.419
35.312
35.034
34.613
34.102
33.555
32.979
32.425
31.979
31.669
31.436
31.218
31.027
30.829
30.575
30.321
30.272
30.898
32.727
35.712
39.06
41.768
43.255
43.543
43.037
42.171
41.227
40.31
39.387
38.389
37.367
36.402
35.651
35.238
35.154
35.294
35.471
35.579
35.607
35.521
35.287
34.929
34.478
34.001
33.52
33.028
32.564
32.156
31.84
31.579
31.282
30.959
30.695
30.713
31.492
33.507
36.639
40.052
42.742
44.175
44.421
43.916
43.14
42.342
41.557
40.729
39.78
38.755
37.768
36.96
36.444
36.234
36.241
36.406
36.64
36.773
36.73
36.509
36.127
35.688
35.26
34.811
34.324
33.859
33.509
33.249
33.013
32.762
32.552
32.606
33.399
35.329
38.165
41.124
43.397
44.663
45.03
44.809
44.338
43.827
43.331
42.812
42.171
41.352
40.419
39.482
38.683
38.135
37.864
37.843
37.901
37.874
37.709
37.427
37.018
36.502
35.895
35.292
34.793
34.4
34.091
33.776
33.428
33.088
32.742
32.393
32.149
32.282
33.293
35.554
38.687
41.735
43.894
44.983
45.259
45.122
44.879
44.639
44.418
44.156
43.757
43.158
42.346
41.417
40.532
39.821
39.355
39.077
38.873
38.657
38.411
38.115
37.738
37.292
36.803
36.265
35.663
35.073
34.581
34.16
33.791
33.444
33.097
32.755
32.45
32.208
32.233
33.041
34.984
37.792
40.674
42.857
44.042
44.421
44.367
44.218
44.076
43.887
43.607
43.187
42.574
41.782
40.864
39.917
39.096
38.532
38.214
38.036
37.873
37.629
37.277
36.848
36.364
35.829
35.263
34.719
34.24
33.83
33.431
33.061
32.754
32.477
32.166
31.842
31.578
31.357
31.111
30.845
30.712
31.162
32.725
35.425
38.558
41.2
42.813
43.434
43.451
43.231
43.012
42.823
42.587
42.219
41.641
40.866
39.929
38.961
38.143
37.595
37.326
37.206
37.092
36.904
36.625
36.253
35.771
35.238
34.721
34.233
33.766
33.296
32.83
32.422
32.061
31.729
31.417
31.144
30.908
30.695
30.513
30.312
30.074
29.823
29.724
30.227
31.838
34.58
37.781
40.518
42.187
42.77
42.678
42.346
41.998
41.644
41.23
40.704
39.998
39.107
38.169
37.361
36.762
36.42
36.286
36.264
36.211
36.048
35.789
35.479
35.09
34.591
34.05
33.55
33.096
32.71
32.414
32.125
31.801
31.521
31.325
31.175
30.989
30.737
30.448
30.174
29.95
29.941
30.618
32.439
35.301
38.456
40.99
42.406
42.799
42.542
41.978
41.359
40.755
40.131
39.383
38.495
37.584
36.8
36.251
35.965
35.875
35.917
36.013
36.04
35.92
35.626
35.193
34.695
34.157
33.609
33.133
32.792
32.506
32.201
31.89
31.606
31.337
31.08
30.862
30.711
30.641
30.753
31.434
33.14
35.819
38.763
41.116
42.424
42.748
42.426
41.808
41.127
40.441
39.687
38.793
37.81
36.884
36.154
35.728
35.614
35.709
35.897
36.045
36.06
35.951
35.717
35.349
34.88
34.354
33.805
33.295
32.863
32.51
32.225
31.96
31.71
31.45
31.22
31.045
30.951
31.306
32.688
35.276
38.47
41.275
43.015
43.608
43.406
42.861
42.28
41.766
41.222
40.541
39.684
38.716
37.793
37.067
36.604
36.433
36.47
36.564
36.592
36.528
36.38
36.125
35.739
35.231
34.659
34.095
33.604
33.206
32.909
32.67
32.437
32.21
31.983
31.76
31.784
32.547
34.452
37.312
40.357
42.761
44.105
44.534
44.402
44.049
43.659
43.282
42.858
42.316
41.592
40.717
39.797
38.973
38.364
38.016
37.874
37.849
37.827
37.688
37.397
36.995
36.515
36.005
35.481
34.967
34.51
34.082
33.703
33.415
33.15
32.856
32.562
32.281
32.048
32.11
32.984
35.008
37.936
40.943
43.206
44.446
44.843
44.794
44.656
44.555
44.412
44.151
43.756
43.209
42.466
41.544
40.548
39.644
38.98
38.571
38.351
38.223
38.072
37.801
37.401
36.907
36.366
35.814
35.265
34.758
34.286
33.825
33.426
33.089
32.774
32.481
32.22
31.919
31.541
31.23
31.326
32.41
34.768
37.923
40.888
42.944
43.946
44.183
44.098
43.935
43.771
43.608
43.364
42.942
42.269
41.345
40.29
39.293
38.49
37.938
37.625
37.453
37.325
37.148
36.836
36.386
35.858
35.305
34.746
34.189
33.631
33.095
32.641
32.288
32.002
31.76
31.509
31.275
31.056
30.869
30.677
30.436
30.204
30.202
30.874
32.722
35.663
38.885
41.499
43.059
43.61
43.525
43.21
42.932
42.729
42.509
42.171
41.597
40.77
39.78
38.777
37.932
37.342
36.976
36.755
36.617
36.479
36.27
35.941
35.476
34.929
34.376
33.837
33.291
32.769
32.305
31.923
31.596
31.284
30.997
30.756
30.542
30.329
30.126
29.966
29.824
29.634
29.465
29.576
30.496
32.677
35.86
39.138
41.552
42.741
42.944
42.636
42.191
41.748
41.298
40.809
40.196
39.434
38.574
37.779
37.2
36.849
36.686
36.641
36.6
36.476
36.222
35.876
35.494
35.046
34.518
33.936
33.327
32.766
32.303
31.97
31.76
31.612
31.445
31.244
31.032
30.821
30.614
30.404
30.191
29.992
29.934
30.41
31.987
34.773
38.071
40.862
42.508
43.022
42.783
42.189
41.483
40.759
40.018
39.232
38.379
37.482
36.665
36.075
35.788
35.785
35.947
36.103
36.144
36.035
35.789
35.43
34.973
34.431
33.864
33.326
32.884
32.543
32.215
31.87
31.547
31.287
31.099
30.947
30.758
30.519
30.318
30.466
31.559
33.898
37.047
40.066
42.119
42.945
42.806
42.163
41.338
40.485
39.661
38.833
37.958
37.064
36.256
35.663
35.369
35.337
35.461
35.6
35.643
35.554
35.359
35.068
34.699
34.241
33.689
33.117
32.595
32.173
31.843
31.539
31.267
31.026
30.785
30.55
30.356
30.195
30.1
30.293
31.344
33.785
37.288
40.766
43.243
44.398
44.477
43.987
43.315
42.62
41.94
41.275
40.586
39.816
38.961
38.098
37.377
36.899
36.648
36.555
36.536
36.47
36.264
35.918
35.495
35.005
34.432
33.854
33.338
32.864
32.409
31.988
31.593
31.213
30.907
30.701
30.518
30.324
30.14
29.957
29.882
30.407
32.22
35.451
39.287
42.535
44.435
44.997
44.717
44.129
43.499
42.905
42.358
41.792
41.107
40.25
39.251
38.249
37.418
36.863
36.557
36.433
36.359
36.255
36.065
35.735
35.28
34.722
34.133
33.592
33.094
32.607
32.108
31.663
31.346
31.131
30.978
30.815
30.62
30.414
30.197
29.978
29.933
30.558
32.479
35.716
39.397
42.381
44.031
44.448
44.145
43.598
43.03
42.477
41.882
41.189
40.396
39.521
38.634
37.85
37.229
36.816
36.615
36.554
36.491
36.342
36.074
35.673
35.17
34.631
34.093
33.565
33.031
32.527
32.057
31.61
31.242
30.949
30.684
30.453
30.288
30.176
30.045
29.835
29.625
29.795
31.011
33.697
37.347
40.819
43.153
44.056
43.893
43.207
42.373
41.548
40.766
40.016
39.197
38.262
37.298
36.515
36.063
35.939
36.044
36.207
36.309
36.266
36.073
35.753
35.301
34.76
34.206
33.692
33.224
32.815
32.454
32.096
31.725
31.394
31.128
30.9
30.691
30.51
30.391
30.543
31.485
33.698
36.945
40.27
42.679
43.739
43.648
42.91
42.001
41.137
40.269
39.329
38.33
37.326
36.449
35.844
35.576
35.582
35.787
36.024
36.133
36.065
35.849
35.525
35.157
34.765
34.353
33.884
33.41
32.96
32.579
32.3
32.098
31.915
31.729
31.532
31.308
31.099
31.14
32.058
34.394
37.818
41.238
43.65
44.746
44.828
44.329
43.565
42.78
42.072
41.395
40.647
39.791
38.911
38.156
37.623
37.364
37.304
37.339
37.362
37.307
37.142
36.849
36.421
35.894
35.343
34.818
34.344
33.921
33.547
33.21
32.885
32.558
32.28
32.046
31.816
31.665
31.935
33.198
35.762
39.082
42.125
44.111
44.905
44.854
44.394
43.839
43.336
42.868
42.342
41.663
40.87
40.081
39.366
38.76
38.293
37.999
37.851
37.761
37.611
37.334
36.963
36.538
36.089
35.609
35.101
34.597
34.149
33.731
33.32
32.915
32.57
32.331
32.141
31.885
31.692
32.028
33.447
36.033
39.129
41.782
43.382
43.929
43.814
43.442
43.018
42.597
42.141
41.565
40.845
40.016
39.176
38.43
37.848
37.461
37.268
37.178
37.078
36.904
36.656
36.35
35.972
35.5
34.965
34.404
33.872
33.441
33.094
32.782
32.481
32.204
31.939
31.657
31.337
31.041
31.01
31.689
33.518
36.373
39.441
41.844
43.138
43.411
43.064
42.494
41.919
41.369
40.79
40.138
39.368
38.524
37.762
37.21
36.907
36.788
36.787
36.821
36.765
36.552
36.201
35.797
35.37
34.907
34.389
33.842
33.388
33.048
32.767
32.516
32.278
32.006
31.714
31.425
31.231
31.509
32.79
35.168
38.062
40.633
42.274
42.89
42.766
42.233
41.563
40.885
40.23
39.544
38.786
37.983
37.228
36.676
36.4
36.352
36.445
36.541
36.538
36.398
36.146
35.806
35.367
34.852
34.322
33.828
33.412
33.08
32.815
32.591
32.376
32.132
31.835
31.509
31.349
31.783
33.264
35.846
38.896
41.5
43.083
43.62
43.471
43.052
42.574
42.099
41.612
41.053
40.358
39.567
38.789
38.135
37.654
37.361
37.21
37.141
37.075
36.93
36.665
36.267
35.766
35.233
34.712
34.244
33.832
33.446
33.083
32.761
32.457
32.204
31.987
31.753
31.504
31.383
31.819
33.402
36.177
39.359
41.929
43.388
43.829
43.684
43.355
43.011
42.674
42.327
41.91
41.347
40.623
39.795
38.971
38.268
37.781
37.494
37.328
37.205
37.067
36.841
36.493
36.051
35.551
35.03
34.497
33.952
33.454
33.046
32.731
32.45
32.199
31.989
31.773
31.487
31.165
30.944
31.189
32.421
34.848
37.911
40.691
42.521
43.274
43.285
42.978
42.609
42.274
41.937
41.519
40.958
40.208
39.324
38.468
37.744
37.208
36.864
36.639
36.468
36.298
36.047
35.7
35.267
34.744
34.182
33.63
33.108
32.621
32.179
31.795
31.456
31.152
30.891
30.695
30.528
30.383
30.228
30.003
29.807
30.034
31.298
33.848
37.187
40.261
42.246
43.025
42.931
42.424
41.842
41.297
40.773
40.212
39.558
38.769
37.868
37.012
36.372
36.037
35.931
35.925
35.896
35.823
35.658
35.344
34.876
34.324
33.732
33.167
32.664
32.232
31.865
31.549
31.276
31.03
30.794
30.588
30.397
30.208
30.037
30.027
30.608
32.349
35.253
38.537
41.206
42.692
43.04
42.654
41.935
41.158
40.416
39.706
38.949
38.073
37.182
36.439
35.918
35.61
35.488
35.496
35.54
35.539
35.435
35.199
34.862
34.439
33.931
33.377
32.842
32.391
32.039
31.74
31.446
31.183
30.974
30.764
30.542
30.362
30.408
31.185
33.186
36.271
39.592
42.148
43.454
43.636
43.132
42.395
41.672
40.974
40.232
39.386
38.453
37.521
36.766
36.284
36.024
35.914
35.842
35.744
35.589
35.38
35.114
34.774
34.34
33.831
33.27
32.72
32.244
31.868
31.591
31.339
31.067
30.812
30.626
30.473
30.299
30.193
30.53
31.939
34.726
38.361
41.72
43.914
44.743
44.575
43.98
43.341
42.772
42.255
41.74
41.118
40.338
39.447
38.598
37.929
37.486
37.24
37.109
37.006
36.844
36.59
36.238
35.81
35.343
34.857
34.368
33.878
33.363
32.843
32.406
32.096
31.865
31.641
31.402
31.145
30.901
30.893
31.621
33.586
36.659
40.017
42.674
44.102
44.412
44.076
43.542
43.022
42.543
42.049
41.447
40.683
39.776
38.853
38.087
37.552
37.215
37.04
36.936
36.837
36.693
36.432
36.04
35.536
34.972
34.413
33.909
33.459
33.055
32.655
32.273
31.963
31.726
31.525
31.32
31.089
30.882
30.917
31.716
33.796
36.975
40.273
42.695
43.883
44.046
43.598
42.927
42.266
41.665
41.05
40.298
39.416
38.495
37.67
37.067
36.739
36.626
36.63
36.641
36.557
36.349
36.031
35.621
35.171
34.688
34.15
33.581
33.06
32.608
32.176
31.787
31.441
31.087
30.724
30.417
30.237
30.432
31.516
33.882
37.156
40.355
42.567
43.459
43.306
42.588
41.72
40.903
40.133
39.377
38.605
37.843
37.14
36.549
36.126
35.919
35.94
36.099
36.266
36.295
36.125
35.784
35.309
34.751
34.213
33.749
33.353
33.026
32.763
32.551
32.392
32.285
32.18
32.013
31.8
31.627
31.744
32.686
34.825
37.873
40.94
43.207
44.373
44.646
44.435
44.055
43.623
43.172
42.696
42.143
41.427
40.553
39.624
38.811
38.225
37.838
37.58
37.424
37.302
37.118
36.838
36.486
36.071
35.607
35.089
34.555
34.065
33.657
33.295
32.889
32.353
31.658
30.886
30.174
29.637
29.392
29.699
31.055
33.747
37.322
40.703
42.975
43.908
43.863
43.353
42.733
42.147
41.57
40.965
40.32
39.592
38.815
38.068
37.453
37.043
36.83
36.733
36.638
36.501
36.347
36.16
35.896
35.545
35.162
34.783
34.381
33.954
33.56
33.247
33.019
32.827
32.646
32.479
32.24
31.87
31.522
31.684
33.013
35.645
38.858
41.664
43.449
44.16
44.143
43.757
43.223
42.615
41.885
41.011
39.999
38.858
37.664
36.607
35.907
35.614
35.592
35.676
35.764
35.809
35.785
35.626
35.292
34.82
34.355
34.022
33.786
33.537
33.214
32.819
32.417
32.065
31.776
31.519
31.416
31.885
33.435
36.039
39.039
41.571
43.102
43.665
43.595
43.209
42.696
42.151
41.606
40.999
40.252
39.355
38.441
37.641
37.052
36.699
36.525
36.454
36.433
36.36
36.164
35.83
35.385
34.879
34.36
33.862
33.412
33.04
32.761
32.555
32.379
32.185
31.881
31.449
31.094
31.311
32.709
35.418
38.779
41.772
43.707
44.543
44.629
44.354
43.974
43.614
43.273
42.839
42.203
41.387
40.47
39.565
38.777
38.197
37.836
37.627
37.441
37.216
36.96
36.64
36.217
35.692
35.125
34.577
34.115
33.728
33.331
32.882
32.389
31.915
31.539
31.263
31.025
30.915
31.362
32.941
35.673
38.871
41.566
43.192
43.795
43.772
43.499
43.181
42.811
42.31
41.665
40.898
40.005
39.048
38.119
37.268
36.592
36.15
35.916
35.839
35.798
35.662
35.392
35.022
34.616
34.211
33.813
33.376
32.906
32.456
32.065
31.747
31.434
31.075
30.684
30.378
30.478
31.492
33.751
36.879
39.955
42.171
43.279
43.499
43.225
42.787
42.352
41.954
41.552
41.025
40.265
39.302
38.26
37.39
36.861
36.612
36.479
36.333
36.151
35.928
35.613
35.178
34.618
33.995
33.369
32.808
32.352
32.003
31.718
31.45
31.206
30.995
30.84
30.731
30.614
30.429
30.183
30.078
30.645
32.473
35.56
39.092
42.012
43.704
44.218
44.033
43.656
43.313
43.042
42.774
42.393
41.796
40.959
40.061
39.299
38.752
38.368
38.11
37.966
37.889
37.807
37.649
37.391
37.028
36.565
36.026
35.466
34.911
34.39
33.96
33.583
33.218
32.872
32.519
32.164
31.835
31.558
31.339
31.241
31.607
32.983
35.51
38.581
41.322
43.136
43.924
43.953
43.599
43.163
42.736
42.277
41.718
41.018
40.142
39.121
38.076
37.179
36.567
36.271
36.189
36.154
36.042
35.825
35.541
35.198
34.757
34.236
33.686
33.158
32.706
32.331
31.998
31.654
31.291
30.96
30.711
30.528
30.306
29.996
29.809
30.241
31.88
34.794
38.25
41.211
42.965
43.473
43.205
42.687
42.189
41.816
41.491
41.051
40.37
39.478
38.468
37.504
36.778
36.357
36.186
36.151
36.143
36.042
35.8
35.444
35.015
34.517
33.974
33.437
32.958
32.578
32.21
31.836
31.532
31.284
31.038
30.795
30.562
30.365
30.234
30.377
31.35
33.629
36.923
40.254
42.68
43.858
44.032
43.686
43.166
42.623
42.119
41.604
40.94
40.109
39.197
38.304
37.515
36.888
36.459
36.245
36.137
36.013
35.811
35.511
35.113
34.629
34.123
33.611
33.084
32.576
32.12
31.727
31.364
30.985
30.627
30.326
30.09
29.891
29.691
29.46
29.272
29.515
30.842
33.647
37.419
41.003
43.417
44.42
44.424
44.011
43.534
43.092
42.679
42.245
41.679
40.878
39.897
38.882
38.03
37.439
37.051
36.769
36.563
36.364
36.109
35.773
35.33
34.808
34.285
33.823
33.382
32.891
32.337
31.788
31.298
30.899
30.578
30.343
30.182
30.043
29.881
29.663
29.49
29.824
31.311
34.209
37.939
41.379
43.624
44.525
44.513
44.097
43.601
43.126
42.637
42.015
41.184
40.17
39.051
37.957
37.032
36.341
35.893
35.69
35.663
35.687
35.621
35.366
34.916
34.369
33.829
33.284
32.722
32.186
31.682
31.204
30.745
30.344
30.02
29.795
29.648
29.516
29.321
29.101
29.017
29.466
30.999
33.916
37.704
41.266
43.667
44.667
44.59
43.981
43.263
42.582
41.93
41.228
40.41
39.433
38.378
37.439
36.728
36.244
35.972
35.847
35.767
35.648
35.455
35.162
34.776
34.318
33.798
33.234
32.69
32.236
31.845
31.414
30.963
30.57
30.261
30.062
29.921
29.76
29.554
29.319
29.125
29.283
30.441
33.086
36.931
40.854
43.709
45.054
45.144
44.557
43.783
43.067
42.447
41.817
41.021
40.025
38.954
37.97
37.175
36.601
36.221
35.982
35.823
35.721
35.594
35.343
34.947
34.443
33.87
33.285
32.762
32.292
31.819
31.353
30.959
30.648
30.387
30.165
30.007
29.869
29.691
29.531
29.651
30.576
32.872
36.42
40.278
43.298
44.849
45.067
44.504
43.684
42.896
42.205
41.52
40.694
39.679
38.58
37.566
36.796
36.313
36.076
35.996
35.99
35.982
35.885
35.648
35.247
34.702
34.097
33.496
32.944
32.444
31.999
31.616
31.286
31.026
30.809
30.56
30.248
29.927
29.682
29.768
30.733
33.082
36.624
40.389
43.234
44.59
44.639
43.909
42.904
41.906
41.009
40.238
39.486
38.667
37.827
37.104
36.639
36.451
36.432
36.474
36.521
36.514
36.377
36.112
35.725
35.26
34.776
34.315
33.904
33.558
33.259
32.944
32.604
32.258
31.983
31.828
31.729
31.615
31.512
31.731
32.885
35.381
38.793
42.08
44.358
45.377
45.418
44.95
44.358
43.825
43.343
42.796
42.099
41.268
40.429
39.706
39.157
38.748
38.461
38.301
38.222
38.129
37.933
37.574
37.077
36.518
35.994
35.507
35.053
34.595
34.17
33.791
33.433
33.1
32.759
32.409
32.083
31.805
31.726
32.302
34.049
36.866
39.962
42.427
43.774
44.086
43.805
43.34
42.836
42.318
41.777
41.154
40.395
39.503
38.581
37.806
37.339
37.224
37.355
37.52
37.528
37.319
36.952
36.513
36.017
35.356
34.479
33.485
32.571
31.926
31.562
31.35
31.194
31.123
31.162
31.265
31.411
31.792
32.905
35.11
38.063
40.859
42.71
43.399
43.207
42.588
41.842
41.138
40.541
39.984
39.348
38.578
37.763
37.061
36.58
36.357
36.325
36.375
36.416
36.374
36.197
35.841
35.356
34.85
34.396
33.981
33.562
33.164
32.854
32.621
32.394
32.12
31.829
31.627
31.809
32.889
35.092
38.023
40.868
42.882
43.831
43.895
43.421
42.703
41.875
40.964
39.978
38.997
38.146
37.505
37.102
36.921
36.867
36.797
36.614
36.356
36.045
35.617
35.072
34.503
34.017
33.66
33.369
33.01
32.501
31.903
31.356
30.942
30.59
30.21
29.862
29.709
30.161
31.822
34.879
38.604
41.843
43.84
44.541
44.389
43.862
43.273
42.728
42.2
41.639
40.978
40.185
39.309
38.456
37.788
37.41
37.282
37.25
37.151
36.916
36.55
36.064
35.485
34.875
34.286
33.77
33.341
32.964
32.587
32.239
31.982
31.792
31.605
31.389
31.263
31.696
33.33
36.224
39.571
42.281
43.767
44.148
43.864
43.381
42.918
42.476
41.992
41.393
40.651
39.812
38.948
38.157
37.573
37.223
37.065
36.998
36.912
36.747
36.466
36.102
35.693
35.223
34.701
34.206
33.804
33.481
33.153
32.775
32.414
32.123
31.855
31.571
31.356
31.638
33.032
35.603
38.662
41.277
42.862
43.38
43.186
42.668
42.052
41.471
40.931
40.32
39.543
38.642
37.762
37.045
36.553
36.272
36.148
36.075
35.998
35.9
35.73
35.445
35.018
34.492
33.95
33.458
33.063
32.724
32.392
32.083
31.791
31.517
31.264
31.006
30.811
31.033
32.233
34.639
37.725
40.533
42.325
42.977
42.785
42.182
41.458
40.734
40.031
39.286
38.463
37.626
36.859
36.239
35.838
35.707
35.782
35.925
36.004
35.948
35.743
35.375
34.885
34.368
33.914
33.532
33.199
32.877
32.538
32.206
31.849
31.445
31.06
30.86
31.19
32.513
34.934
37.902
40.545
42.229
42.799
42.538
41.873
41.093
40.317
39.555
38.732
37.825
36.912
36.148
35.664
35.49
35.554
35.732
35.876
35.91
35.813
35.612
35.313
34.914
34.434
33.955
33.523
33.154
32.799
32.414
32.04
31.702
31.381
31.237
31.765
33.502
36.32
39.4
41.802
43.027
43.156
42.627
41.886
41.162
40.461
39.719
38.885
37.98
37.074
36.265
35.706
35.465
35.461
35.61
35.808
35.924
35.892
35.712
35.389
34.981
34.58
34.204
33.791
33.361
32.961
32.596
32.26
31.92
31.715
32.112
33.675
36.412
39.543
42.091
43.534
43.929
43.656
43.08
42.441
41.822
41.173
40.441
39.601
38.678
37.801
37.099
36.635
36.368
36.269
36.296
36.376
36.373
36.156
35.717
35.163
34.633
34.163
33.732
33.322
32.914
32.535
32.187
31.84
31.489
31.159
31.018
31.599
33.513
36.658
40.111
42.865
44.389
44.763
44.431
43.86
43.346
42.899
42.419
41.854
41.135
40.229
39.222
38.309
37.619
37.162
36.872
36.717
36.607
36.465
36.269
35.964
35.554
35.07
34.549
34.037
33.562
33.093
32.63
32.189
31.839
31.56
31.318
31.046
30.773
30.697
31.342
33.303
36.528
40.075
42.87
44.416
44.855
44.644
44.175
43.665
43.194
42.719
42.162
41.45
40.574
39.605
38.692
37.93
37.352
36.951
36.708
36.614
36.556
36.393
36.1
35.671
35.124
34.506
33.904
33.381
32.926
32.482
32.039
31.645
31.31
31.007
30.738
30.517
30.317
30.165
30.365
31.566
34.192
37.786
41.202
43.487
44.434
44.368
43.843
43.293
42.81
42.326
41.771
41.077
40.245
39.285
38.307
37.463
36.866
36.523
36.343
36.238
36.122
35.955
35.716
35.37
34.928
34.408
33.86
33.34
32.829
32.349
31.903
31.492
31.147
30.897
30.718
30.573
30.433
30.228
29.965
29.909
30.678
32.83
36.129
39.576
42.118
43.301
43.377
42.896
42.242
41.568
40.943
40.314
39.583
38.724
37.829
37.025
36.392
35.981
35.769
35.694
35.692
35.69
35.61
35.409
35.105
34.708
34.211
33.685
33.196
32.774
32.398
32.063
31.738
31.415
31.133
30.902
30.701
30.532
30.367
30.188
30.132
30.586
32.133
34.875
38.108
40.788
42.278
42.609
42.217
41.506
40.721
39.949
39.178
38.368
37.498
36.61
35.826
35.288
35.062
35.09
35.233
35.376
35.468
35.487
35.372
35.081
34.668
34.207
33.755
33.332
32.943
32.59
32.275
31.993
31.734
31.516
31.313
31.096
30.884
30.757
31.043
32.264
34.632
37.584
40.154
41.707
42.17
41.853
41.182
40.412
39.613
38.786
37.942
37.07
36.215
35.491
35.014
34.836
34.896
35.087
35.324
35.527
35.587
35.44
35.153
34.815
34.447
34.076
33.716
33.379
33.042
32.706
32.422
32.226
32.052
31.835
31.589
31.457
31.775
33.033
35.398
38.269
40.724
42.174
42.656
42.499
41.993
41.37
40.751
40.133
39.489
38.787
38.038
37.328
36.768
36.441
36.346
36.409
36.561
36.702
36.737
36.614
36.342
35.989
35.608
35.206
34.824
34.48
34.164
33.85
33.545
33.27
33.025
32.792
32.59
32.608
33.294
34.965
37.429
39.995
41.952
42.987
43.187
42.854
42.32
41.782
41.338
40.963
40.537
39.976
39.296
38.616
38.047
37.655
37.461
37.4
37.378
37.335
37.236
37.046
36.747
36.393
36.022
35.652
35.298
34.94
34.592
34.283
34.026
33.824
33.602
33.295
32.959
32.777
33.102
34.372
36.6
39.191
41.398
42.785
43.375
43.411
43.183
42.876
42.563
42.266
41.957
41.535
40.926
40.176
39.369
38.625
38.104
37.88
37.867
37.894
37.845
37.681
37.41
37.077
36.711
36.334
35.93
35.498
35.081
34.698
34.307
33.932
33.622
33.382
33.144
32.887
32.726
32.995
34.137
36.237
38.788
41.055
42.578
43.271
43.337
43.087
42.74
42.42
42.137
41.842
41.417
40.771
39.984
39.196
38.514
38.019
37.732
37.638
37.652
37.625
37.459
37.164
36.787
36.376
35.954
35.526
35.108
34.713
34.332
33.945
33.605
33.321
33.053
32.807
32.588
32.374
32.116
31.946
32.302
33.674
36.073
38.857
41.203
42.632
43.164
43.102
42.754
42.333
41.933
41.533
41.042
40.428
39.737
39.001
38.324
37.839
37.596
37.495
37.446
37.424
37.371
37.244
37.004
36.651
36.202
35.72
35.252
34.836
34.466
34.124
33.822
33.558
33.311
33.061
32.833
32.617
32.389
32.158
32.103
32.647
34.176
36.567
39.159
41.203
42.323
42.592
42.342
41.887
41.37
40.832
40.31
39.715
38.976
38.158
37.426
36.918
36.655
36.581
36.588
36.625
36.64
36.558
36.357
36.055
35.686
35.28
34.85
34.401
33.975
33.633
33.377
33.146
32.903
32.626
32.356
32.161
32.019
31.859
31.658
31.603
32.209
33.96
36.704
39.626
41.854
42.993
43.209
42.928
42.469
41.994
41.531
41.018
40.424
39.725
38.945
38.208
37.608
37.235
37.096
37.092
37.121
37.076
36.896
36.62
36.301
35.947
35.515
35.002
34.48
34.004
33.611
33.298
33.03
32.77
32.507
32.26
32.048
31.864
31.658
31.426
31.254
31.32
32.099
34.037
36.952
39.999
42.293
43.489
43.762
43.499
43.03
42.552
42.091
41.613
41.072
40.413
39.645
38.804
38.025
37.464
37.191
37.123
37.125
37.096
36.986
36.758
36.401
35.946
35.478
34.989
34.465
33.928
33.432
33.018
32.685
32.377
32.092
31.878
31.725
31.555
31.311
31.032
30.805
30.959
32.045
34.363
37.493
40.494
42.582
43.523
43.54
43.095
42.531
41.977
41.45
40.896
40.26
39.541
38.774
38.009
37.363
36.969
36.824
36.804
36.826
36.855
36.797
36.559
36.159
35.671
35.14
34.613
34.108
33.608
33.176
32.809
32.494
32.257
32.06
31.825
31.516
31.178
31.013
31.439
32.91
35.459
38.465
41.07
42.686
43.233
43.025
42.447
41.78
41.127
40.488
39.787
38.949
38.029
37.189
36.568
36.215
36.102
36.14
36.248
36.34
36.296
36.062
35.688
35.237
34.721
34.175
33.66
33.248
32.921
32.651
32.392
32.089
31.764
31.47
31.23
31.009
30.788
30.677
31.093
32.638
35.47
38.889
41.834
43.592
44.134
43.849
43.21
42.538
41.962
41.463
40.909
40.195
39.33
38.437
37.677
37.152
36.888
36.832
36.841
36.774
36.612
36.401
36.111
35.668
35.117
34.554
34.06
33.655
33.245
32.829
32.451
32.123
31.858
31.671
31.517
31.298
31.033
30.931
31.589
33.569
36.645
39.901
42.345
43.554
43.73
43.327
42.739
42.153
41.594
41.035
40.4
39.662
38.808
37.936
37.215
36.77
36.605
36.613
36.642
36.596
36.451
36.186
35.785
35.282
34.722
34.116
33.522
33.015
32.603
32.263
31.938
31.617
31.341
31.097
30.861
30.716
31.004
32.281
34.773
37.941
40.811
42.604
43.147
42.812
42.103
41.327
40.6
39.917
39.2
38.368
37.45
36.6
35.963
35.582
35.419
35.407
35.456
35.486
35.419
35.228
34.922
34.514
34.009
33.469
32.982
32.553
32.172
31.826
31.512
31.231
30.981
30.726
30.455
30.321
30.795
32.46
35.349
38.684
41.396
42.852
43.083
42.519
41.636
40.745
39.901
39.048
38.108
37.084
36.123
35.405
35.02
34.983
35.177
35.454
35.666
35.691
35.519
35.204
34.776
34.303
33.832
33.402
32.969
32.526
32.098
31.758
31.493
31.215
30.916
30.643
30.682
31.621
33.863
37.011
40.096
42.211
43.035
42.851
42.111
41.128
40.087
39.046
37.971
36.859
35.851
35.113
34.731
34.668
34.831
35.089
35.332
35.487
35.5
35.326
34.98
34.562
34.137
33.665
33.139
32.627
32.237
31.983
31.754
31.501
31.213
30.988
31.263
32.638
35.287
38.624
41.639
43.549
44.198
43.877
43.055
42.086
41.145
40.252
39.331
38.381
37.492
36.787
36.344
36.166
36.212
36.365
36.474
36.456
36.301
36.043
35.693
35.23
34.695
34.193
33.76
33.356
32.976
32.646
32.328
31.981
31.647
31.593
32.357
34.439
37.654
41.042
43.566
44.792
44.929
44.449
43.775
43.088
42.407
41.736
41.038
40.246
39.364
38.525
37.852
37.413
37.186
37.121
37.117
37.048
36.836
36.462
36.005
35.536
35.069
34.589
34.081
33.582
33.135
32.727
32.34
31.984
31.715
31.757
32.622
34.769
37.947
41.193
43.543
44.625
44.649
44.115
43.456
42.862
42.337
41.783
41.12
40.295
39.363
38.48
37.755
37.256
36.969
36.855
36.836
36.783
36.588
36.218
35.762
35.273
34.765
34.256
33.764
33.273
32.762
32.293
31.932
31.649
31.37
31.111
31.235
32.381
34.852
38.109
41.11
43.033
43.745
43.623
43.098
42.449
41.814
41.206
40.561
39.79
38.89
37.961
37.169
36.635
36.342
36.198
36.122
36.052
35.909
35.651
35.283
34.83
34.324
33.811
33.324
32.886
32.484
32.093
31.741
31.447
31.208
30.947
30.661
30.481
30.785
32.135
34.721
37.95
40.858
42.711
43.326
43.064
42.385
41.606
40.899
40.219
39.444
38.541
37.579
36.718
36.105
35.79
35.725
35.826
35.982
36.038
35.896
35.561
35.074
34.553
34.051
33.583
33.138
32.709
32.296
31.953
31.702
31.475
31.238
30.971
30.697
30.671
31.402
33.342
36.312
39.454
41.786
42.868
42.849
42.179
41.266
40.352
39.517
38.706
37.818
36.875
36.043
35.494
35.281
35.303
35.449
35.628
35.759
35.724
35.47
35.054
34.548
33.991
33.443
32.933
32.499
32.157
31.863
31.585
31.302
31.015
30.734
30.54
30.703
31.737
34.018
37.193
40.297
42.441
43.34
43.213
42.472
41.523
40.616
39.748
38.809
37.796
36.819
36.03
35.536
35.327
35.371
35.588
35.835
35.961
35.912
35.698
35.339
34.912
34.478
34.048
33.599
33.127
32.675
32.301
32.016
31.754
31.437
31.177
31.337
32.508
34.999
38.32
41.433
43.463
44.202
43.968
43.238
42.376
41.531
40.741
39.947
39.066
38.115
37.225
36.526
36.107
35.967
36.026
36.143
36.198
36.142
35.949
35.594
35.106
34.548
33.969
33.404
32.91
32.511
32.226
31.969
31.679
31.358
31.069
31.004
31.628
33.565
36.794
40.414
43.312
44.874
45.198
44.779
44.097
43.428
42.841
42.298
41.673
40.85
39.863
38.901
38.12
37.566
37.259
37.096
36.951
36.794
36.634
36.424
36.081
35.599
35.039
34.441
33.86
33.355
32.945
32.616
32.319
32.003
31.649
31.288
31.068
31.317
32.632
35.317
38.794
41.973
44.021
44.79
44.693
44.225
43.711
43.233
42.733
42.152
41.438
40.569
39.597
38.617
37.773
37.169
36.837
36.695
36.599
36.44
36.177
35.805
35.385
34.918
34.398
33.82
33.249
32.741
32.3
31.912
31.54
31.188
30.872
30.582
30.331
30.29
30.947
32.841
35.915
39.367
42.169
43.739
44.136
43.802
43.188
42.576
42.035
41.463
40.743
39.89
38.958
38.025
37.181
36.521
36.12
35.954
35.902
35.825
35.626
35.299
34.909
34.488
34.016
33.461
32.891
32.393
31.991
31.651
31.336
31.041
30.757
30.483
30.198
29.91
29.706
29.83
30.848
33.243
36.727
40.254
42.778
43.885
43.829
43.12
42.223
41.426
40.756
40.069
39.265
38.305
37.289
36.43
35.883
35.648
35.622
35.665
35.697
35.633
35.432
35.098
34.651
34.137
33.601
33.084
32.602
32.171
31.807
31.504
31.246
31.012
30.784
30.567
30.321
30.118
30.313
31.471
33.94
37.341
40.633
42.84
43.651
43.362
42.485
41.462
40.536
39.704
38.83
37.877
36.911
36.054
35.482
35.242
35.23
35.325
35.445
35.521
35.452
35.199
34.822
34.36
33.837
33.3
32.772
32.291
31.909
31.624
31.377
31.12
30.85
30.605
30.399
30.256
30.39
31.379
33.697
37.105
40.651
43.264
44.432
44.355
43.566
42.581
41.664
40.845
40.043
39.173
38.228
37.339
36.622
36.139
35.894
35.846
35.908
35.981
35.97
35.781
35.396
34.898
34.387
33.881
33.383
32.886
32.397
31.971
31.626
31.347
31.112
30.892
30.65
30.397
30.297
30.709
32.238
35.202
39.002
42.464
44.656
45.412
45.185
44.486
43.649
42.9
42.29
41.659
40.875
39.95
38.978
38.099
37.447
37.061
36.864
36.759
36.674
36.533
36.285
35.932
35.472
34.93
34.361
33.795
33.263
32.8
32.415
32.082
31.77
31.458
31.176
30.918
30.666
30.556
31.032
32.674
35.681
39.387
42.639
44.63
45.24
44.941
44.298
43.663
43.106
42.534
41.875
41.09
40.189
39.25
38.392
37.709
37.231
36.923
36.73
36.618
36.528
36.351
36.006
35.513
34.935
34.318
33.743
33.237
32.768
32.353
31.991
31.675
31.401
31.171
30.94
30.683
30.533
30.904
32.418
35.301
38.915
42.151
44.157
44.798
44.508
43.817
43.097
42.498
41.963
41.381
40.66
39.765
38.751
37.782
37.074
36.688
36.538
36.477
36.391
36.228
35.97
35.609
35.16
34.667
34.15
33.603
33.07
32.603
32.24
31.951
31.713
31.485
31.216
30.899
30.612
30.439
30.604
31.599
33.881
37.199
40.572
43.016
44.089
44.044
43.422
42.67
41.983
41.364
40.712
39.957
39.114
38.219
37.371
36.674
36.198
35.953
35.869
35.851
35.751
35.517
35.2
34.836
34.434
33.955
33.417
32.879
32.394
31.994
31.646
31.329
31.068
30.87
30.702
30.528
30.329
30.158
30.278
31.247
33.534
36.847
40.193
42.634
43.752
43.725
43.05
42.145
41.254
40.417
39.581
38.691
37.763
36.89
36.209
35.807
35.67
35.693
35.771
35.791
35.698
35.479
35.141
34.688
34.159
33.612
33.115
32.681
32.304
31.985
31.737
31.536
31.335
31.1
30.825
30.559
30.406
30.653
31.817
34.205
37.414
40.479
42.531
43.279
42.968
42.08
41.016
40.009
39.079
38.129
37.14
36.212
35.5
35.094
34.991
35.099
35.293
35.453
35.489
35.386
35.159
34.813
34.343
33.772
33.192
32.687
32.32
32.053
31.775
31.461
31.186
30.968
30.744
30.5
30.36
30.734
32.204
35.017
38.593
41.829
43.84
44.442
44.017
43.101
42.109
41.219
40.382
39.526
38.602
37.677
36.906
36.416
36.201
36.166
36.176
36.162
36.119
36.01
35.776
35.39
34.917
34.432
33.948
33.512
33.141
32.805
32.5
32.215
31.967
31.752
31.556
31.343
31.193
31.548
33.057
35.944
39.558
42.773
44.785
45.49
45.289
44.691
44.016
43.356
42.722
42.051
41.264
40.36
39.478
38.742
38.235
37.966
37.881
37.874
37.816
37.615
37.271
36.824
36.332
35.835
35.347
34.87
34.418
34.013
33.676
33.379
33.087
32.789
32.498
32.24
32.193
32.824
34.605
37.444
40.611
43.185
44.647
45.053
44.801
44.32
43.849
43.416
42.938
42.365
41.658
40.807
39.924
39.175
38.649
38.336
38.187
38.073
37.893
37.606
37.215
36.794
36.357
35.883
35.377
34.868
34.387
33.942
33.55
33.243
33.009
32.772
32.495
32.168
31.946
32.252
33.607
36.117
39.182
41.867
43.518
44.084
43.941
43.513
43.079
42.69
42.273
41.733
41.001
40.112
39.203
38.409
37.802
37.458
37.321
37.238
37.121
36.921
36.627
36.248
35.762
35.208
34.675
34.212
33.785
33.395
33.052
32.756
32.513
32.303
32.065
31.777
31.475
31.283
31.495
32.592
34.819
37.782
40.608
42.553
43.368
43.305
42.833
42.285
41.773
41.29
40.752
40.079
39.258
38.386
37.623
37.109
36.864
36.824
36.85
36.79
36.555
36.204
35.836
35.446
35.015
34.552
34.085
33.643
33.268
32.976
32.743
32.518
32.268
31.996
31.729
31.482
31.399
31.883
33.394
35.909
38.766
41.101
42.394
42.668
42.318
41.772
41.246
40.716
40.087
39.295
38.387
37.507
36.811
36.397
36.241
36.24
36.27
36.244
36.099
35.824
35.476
35.078
34.607
34.097
33.615
33.183
32.817
32.5
32.228
31.985
31.746
31.544
31.364
31.162
30.985
31.127
32.1
34.246
37.24
40.21
42.363
43.395
43.48
43.042
42.426
41.837
41.304
40.758
40.088
39.251
38.335
37.525
36.956
36.678
36.573
36.51
36.398
36.178
35.847
35.454
35.003
34.515
34.036
33.608
33.22
32.831
32.467
32.17
31.954
31.788
31.621
31.402
31.159
31.003
31.277
32.538
35.036
38.263
41.247
43.2
44.013
43.995
43.577
43.077
42.603
42.122
41.565
40.887
40.063
39.163
38.351
37.735
37.333
37.117
37.011
36.881
36.65
36.306
35.891
35.441
34.958
34.433
33.885
33.368
32.928
32.596
32.327
32.059
31.777
31.522
31.292
31.034
30.83
30.964
31.962
34.221
37.421
40.602
42.874
43.904
43.953
43.503
42.919
42.386
41.915
41.406
40.774
39.971
39.049
38.119
37.32
36.809
36.575
36.466
36.336
36.13
35.866
35.544
35.132
34.64
34.092
33.507
32.927
32.419
31.995
31.61
31.268
31.005
30.803
30.596
30.35
30.085
29.912
30.157
31.389
33.93
37.339
40.582
42.776
43.709
43.642
43.063
42.374
41.765
41.223
40.639
39.945
39.113
38.212
37.37
36.7
36.272
36.085
36.058
36.034
35.887
35.617
35.262
34.816
34.303
33.759
33.216
32.751
32.389
32.07
31.742
31.421
31.167
30.984
30.835
30.665
30.46
30.321
30.616
31.919
34.486
37.808
40.868
42.849
43.565
43.35
42.667
41.861
41.11
40.471
39.839
39.117
38.281
37.373
36.564
36.044
35.83
35.816
35.856
35.819
35.669
35.383
34.939
34.4
33.865
33.383
32.952
32.553
32.156
31.776
31.476
31.29
31.152
31.0
30.859
30.683
30.454
30.238
30.316
31.265
33.571
37.002
40.549
43.125
44.304
44.318
43.715
42.943
42.227
41.563
40.894
40.135
39.242
38.334
37.553
36.983
36.649
36.476
36.373
36.285
36.14
35.885
35.517
35.085
34.62
34.116
33.591
33.105
32.684
32.336
32.045
31.767
31.49
31.235
31.027
30.833
30.61
30.373
30.349
31.072
33.088
36.351
39.976
42.834
44.354
44.635
44.174
43.455
42.728
42.077
41.453
40.785
39.996
39.08
38.165
37.413
36.903
36.599
36.424
36.319
36.21
36.022
35.705
35.264
34.763
34.248
33.722
33.19
32.693
32.253
31.898
31.623
31.398
31.173
30.935
30.669
30.374
30.132
30.171
30.98
33.093
36.422
40.037
42.84
44.263
44.457
43.954
43.218
42.474
41.793
41.127
40.379
39.519
38.607
37.76
37.078
36.633
36.414
36.341
36.297
36.228
36.063
35.746
35.293
34.768
34.228
33.719
33.244
32.817
32.432
32.115
31.866
31.684
31.533
31.344
31.116
30.847
30.622
30.714
31.635
33.826
37.089
40.508
43.064
44.289
44.349
43.75
42.916
42.07
41.324
40.634
39.828
38.798
37.584
36.376
35.451
34.973
34.845
34.839
34.688
34.218
33.51
32.727
32.065
31.669
31.515
31.486
31.461
31.362
31.221
31.145
31.185
31.332
31.554
31.778
31.967
32.157
32.499
33.414
35.339
38.209
41.312
43.786
45.18
45.592
45.362
44.826
44.196
43.535
42.845
42.05
41.137
40.221
39.438
38.849
38.417
38.102
37.885
37.78
37.754
37.719
37.585
37.309
36.876
36.329
35.738
35.19
34.76
34.434
34.172
33.909
33.622
33.343
33.083
32.861
32.746
32.98
34.057
36.271
39.203
41.941
43.794
44.601
44.585
44.127
43.54
42.982
42.453
41.823
41.049
40.188
39.364
38.745
38.393
38.306
38.371
38.459
38.478
38.402
38.223
37.924
37.522
37.05
36.559
36.134
35.799
35.538
35.353
35.226
35.12
35.014
34.884
34.776
35.03
36.109
38.133
40.642
42.944
44.564
45.41
45.667
45.593
45.361
45.073
44.784
44.475
44.044
43.46
42.82
42.264
41.844
41.557
41.364
41.216
41.054
40.848
40.564
40.223
39.833
39.384
38.908
38.444
38.043
37.727
37.479
37.248
36.97
36.617
36.269
35.988
35.941
36.434
37.686
39.523
41.479
43.064
44.016
44.371
44.305
44.029
43.713
43.415
43.091
42.693
42.175
41.533
40.876
40.353
40.018
39.864
39.785
39.708
39.591
39.406
39.122
38.737
38.293
37.833
37.371
36.913
36.466
36.038
35.663
35.378
35.175
34.967
34.716
34.452
34.264
34.405
35.213
36.783
38.832
40.826
42.286
43.017
43.14
42.951
42.698
42.485
42.286
41.985
41.526
40.926
40.28
39.725
39.349
39.143
39.021
38.935
38.851
38.695
38.417
38.043
37.634
37.228
36.825
36.395
35.925
35.489
35.101
34.758
34.453
34.17
33.901
33.608
33.278
32.964
32.874
33.41
34.827
36.886
39.034
40.717
41.68
41.989
41.877
41.572
41.226
40.89
40.561
40.193
39.743
39.203
38.654
38.229
37.99
37.915
37.93
37.91
37.776
37.524
37.195
36.841
36.467
36.081
35.688
35.3
34.917
34.567
34.293
34.086
33.895
33.711
33.519
33.284
33.034
32.798
32.683
32.939
33.865
35.499
37.516
39.359
40.57
41.032
40.952
40.623
40.236
39.883
39.56
39.2
38.718
38.138
37.579
37.19
37.061
37.128
37.266
37.342
37.316
37.203
37.034
36.794
36.431
35.985
35.557
35.186
34.87
34.574
34.281
34.017
33.803
33.591
33.342
33.071
32.798
32.54
32.392
32.601
33.469
35.04
36.958
38.725
39.96
40.545
40.552
40.169
39.669
39.208
38.808
38.44
38.029
37.532
37.044
36.692
36.505
36.465
36.515
36.575
36.572
36.461
36.232
35.926
35.563
35.168
34.746
34.344
34.021
33.764
33.535
33.3
33.034
32.809
32.678
32.566
32.394
32.223
32.291
32.955
34.395
36.362
38.334
39.822
40.601
40.725
40.4
39.879
39.36
38.887
38.429
37.915
37.364
36.86
36.495
36.324
36.322
36.418
36.53
36.586
36.536
36.377
36.121
35.803
35.469
35.152
34.828
34.484
34.163
33.907
33.718
33.543
33.365
33.18
32.982
32.804
32.694
32.839
33.568
35.027
36.943
38.802
40.125
40.708
40.655
40.23
39.663
39.104
38.577
38.05
37.507
36.973
36.515
36.215
36.131
36.233
36.412
36.532
36.544
36.438
36.224
35.963
35.681
35.381
35.049
34.681
34.326
34.027
33.766
33.529
33.323
33.144
33.018
32.911
32.762
32.626
32.802
33.691
35.375
37.446
39.278
40.405
40.693
40.38
39.83
39.214
38.586
37.991
37.418
36.86
36.375
36.04
35.897
35.938
36.09
36.273
36.421
36.472
36.378
36.141
35.794
35.411
35.058
34.739
34.455
34.204
33.998
33.816
33.622
33.405
33.182
32.947
32.706
32.626
33.082
34.361
36.305
38.358
39.943
40.749
40.84
40.482
39.923
39.319
38.734
38.164
37.583
37.005
36.497
36.158
36.071
36.192
36.41
36.613
36.735
36.74
36.603
36.335
35.992
35.604
35.172
34.768
34.417
34.097
33.821
33.593
33.383
33.162
32.914
32.684
32.607
32.952
34.032
35.848
37.989
39.867
41.025
41.351
41.015
40.344
39.623
38.977
38.343
37.637
36.924
36.323
35.966
35.883
36.006
36.231
36.444
36.57
36.565
36.415
36.147
35.775
35.325
34.841
34.391
33.994
33.635
33.297
32.982
32.697
32.428
32.146
31.876
31.764
32.209
33.599
35.823
38.218
40.104
41.137
41.356
41.006
40.345
39.572
38.771
37.983
37.227
36.572
36.068
35.783
35.742
35.878
36.098
36.321
36.43
36.351
36.119
35.799
35.433
35.036
34.634
34.248
33.878
33.544
33.309
33.124
32.93
32.718
32.534
32.472
32.836
33.983
35.947
38.265
40.25
41.449
41.776
41.445
40.775
40.021
39.292
38.588
37.872
37.181
36.618
36.293
36.245
36.422
36.684
36.888
36.964
36.917
36.786
36.572
36.263
35.878
35.48
35.119
34.784
34.455
34.152
33.93
33.763
33.584
33.359
33.247
33.63
34.864
36.85
39.032
40.744
41.641
41.737
41.283
40.605
39.896
39.145
38.338
37.534
36.868
36.454
36.341
36.495
36.799
37.098
37.251
37.254
37.129
36.889
36.588
36.245
35.88
35.512
35.169
34.882
34.661
34.469
34.267
33.999
33.688
33.472
33.684
34.674
36.454
38.553
40.363
41.442
41.738
41.438
40.775
39.978
39.181
38.374
37.547
36.839
36.409
36.338
36.548
36.89
37.209
37.397
37.432
37.328
37.108
36.776
36.402
36.054
35.777
35.527
35.292
35.062
34.806
34.506
34.195
33.935
33.788
33.969
34.794
36.313
38.186
39.897
41.034
41.432
41.205
40.572
39.74
38.86
37.995
37.216
36.626
36.272
36.174
36.335
36.665
37.036
37.305
37.388
37.285
37.037
36.688
36.315
35.988
35.674
35.343
35.032
34.784
34.594
34.426
34.228
34.024
33.973
34.393
35.589
37.448
39.42
40.93
41.691
41.706
41.247
40.582
39.822
39.025
38.241
37.549
37.05
36.811
36.835
37.057
37.354
37.595
37.701
37.655
37.467
37.172
36.83
36.479
36.109
35.735
35.402
35.174
35.027
34.838
34.559
34.285
34.194
34.59
35.763
37.624
39.678
41.338
42.258
42.437
42.107
41.517
40.835
40.158
39.508
38.876
38.3
37.876
37.696
37.748
37.943
38.155
38.3
38.302
38.14
37.843
37.461
37.048
36.628
36.227
35.902
35.625
35.381
35.123
34.816
34.504
34.303
34.49
35.415
37.105
39.143
40.956
42.146
42.618
42.512
42.046
41.411
40.751
40.11
39.47
38.868
38.365
38.018
37.895
37.977
38.147
38.285
38.282
38.146
37.919
37.593
37.186
36.774
36.413
36.076
35.741
35.433
35.134
34.83
34.503
34.214
34.193
34.792
36.21
38.189
40.141
41.532
42.179
42.168
41.747
41.143
40.52
39.954
39.39
38.775
38.195
37.746
37.482
37.437
37.57
37.738
37.763
37.608
37.361
37.05
36.673
36.247
35.823
35.444
35.096
34.78
34.507
34.28
34.068
33.852
33.677
33.831
34.717
36.432
38.583
40.501
41.698
42.095
41.883
41.327
40.61
39.864
39.166
38.514
37.922
37.427
37.1
36.978
37.025
37.159
37.273
37.268
37.11
36.806
36.403
35.966
35.556
35.181
34.836
34.535
34.281
34.066
33.846
33.584
33.296
33.094
33.293
34.288
36.143
38.388
40.333
41.533
41.931
41.719
41.17
40.48
39.762
39.026
38.27
37.582
37.078
36.816
36.762
36.856
37.026
37.149
37.147
36.967
36.643
36.265
35.876
35.488
35.129
34.778
34.409
34.022
33.656
33.351
33.083
32.828
32.688
33.018
34.226
36.297
38.653
40.567
41.626
41.846
41.483
40.799
40.017
39.242
38.483
37.746
37.101
36.645
36.43
36.435
36.586
36.758
36.855
36.827
36.647
36.312
35.899
35.442
34.967
34.499
34.067
33.717
33.413
33.117
32.827
32.55
32.328
32.265
32.732
34.17
36.53
39.123
41.107
42.043
42.072
41.574
40.859
40.077
39.302
38.522
37.737
37.015
36.506
36.268
36.272
36.43
36.618
36.729
36.685
36.455
36.109
35.694
35.238
34.765
34.302
33.874
33.506
33.189
32.911
32.667
32.412
32.175
32.167
32.881
34.661
37.185
39.667
41.422
42.182
42.088
41.453
40.579
39.717
38.941
38.176
37.436
36.796
36.34
36.146
36.237
36.463
36.64
36.679
36.577
36.355
36.04
35.661
35.255
34.816
34.378
33.973
33.593
33.258
32.994
32.764
32.499
32.253
32.348
33.299
35.294
37.854
40.16
41.61
42.035
41.696
40.997
40.137
39.199
38.268
37.434
36.753
36.248
35.948
35.853
35.923
36.101
36.286
36.361
36.269
35.99
35.559
35.055
34.557
34.099
33.674
33.268
32.884
32.544
32.239
31.97
31.693
31.51
31.805
33.099
35.433
38.16
40.407
41.613
41.773
41.198
40.277
39.282
38.292
37.316
36.412
35.698
35.265
35.138
35.262
35.536
35.827
36.042
36.08
35.899
35.568
35.169
34.728
34.249
33.777
33.354
32.97
32.661
32.442
32.232
31.953
31.672
31.731
32.692
34.817
37.623
40.197
41.786
42.196
41.767
40.958
40.045
39.069
38.035
37.032
36.203
35.7
35.53
35.621
35.917
36.288
36.56
36.636
36.5
36.193
35.791
35.374
34.963
34.55
34.12
33.723
33.411
33.168
32.902
32.58
32.304
32.327
33.105
34.936
37.493
39.968
41.656
42.304
42.06
41.252
40.197
39.116
38.087
37.16
36.357
35.765
35.494
35.536
35.817
36.208
36.549
36.689
36.584
36.277
35.854
35.416
34.98
34.527
34.071
33.677
33.363
33.074
32.776
32.457
32.171
32.221
33.149
35.214
37.914
40.381
41.978
42.506
42.163
41.325
40.307
39.263
38.213
37.239
36.459
35.963
35.77
35.863
36.133
36.42
36.61
36.67
36.547
36.283
35.917
35.475
35.018
34.576
34.145
33.743
33.386
33.097
32.852
32.59
32.359
32.477
33.505
35.661
38.442
40.934
42.461
42.91
42.555
41.753
40.785
39.798
38.864
37.986
37.227
36.682
36.405
36.398
36.612
36.926
37.201
37.298
37.139
36.763
36.275
35.79
35.358
34.952
34.518
34.115
33.78
33.49
33.239
32.986
32.789
33.003
34.146
36.338
38.982
41.22
42.507
42.78
42.32
41.465
40.478
39.505
38.61
37.807
37.121
36.618
36.38
36.424
36.697
37.011
37.175
37.153
36.935
36.557
36.107
35.653
35.179
34.702
34.298
33.999
33.757
33.519
33.241
32.939
32.722
32.977
34.242
36.543
39.201
41.35
42.519
42.714
42.219
41.377
40.433
39.531
38.648
37.81
37.127
36.709
36.586
36.687
36.893
37.067
37.129
37.056
36.835
36.515
36.109
35.643
35.15
34.669
34.258
33.955
33.711
33.457
33.137
32.806
32.617
32.942
34.218
36.442
39.035
41.151
42.286
42.451
41.959
41.183
40.307
39.388
38.497
37.677
37.02
36.604
36.446
36.519
36.749
36.981
37.085
37.023
36.818
36.472
36.029
35.549
35.034
34.525
34.088
33.767
33.531
33.313
33.024
32.718
32.572
32.935
34.25
36.528
39.164
41.335
42.552
42.784
42.298
41.46
40.583
39.777
39.018
38.299
37.674
37.233
37.046
37.089
37.283
37.514
37.642
37.581
37.344
36.955
36.489
35.987
35.528
35.144
34.822
34.51
34.183
33.847
33.554
33.32
33.184
33.462
34.637
36.763
39.271
41.396
42.617
42.894
42.503
41.779
40.961
40.163
39.401
38.647
37.985
37.553
37.387
37.412
37.53
37.659
37.698
37.62
37.435
37.129
36.687
36.155
35.642
35.235
34.912
34.595
34.255
33.936
33.652
33.398
33.274
33.654
34.973
37.171
39.659
41.711
42.877
43.16
42.809
42.136
41.372
40.649
40.03
39.455
38.902
38.459
38.211
38.144
38.178
38.226
38.187
38.041
37.795
37.451
37.012
36.533
36.076
35.648
35.284
34.964
34.654
34.351
34.036
33.757
33.631
33.995
35.251
37.334
39.675
41.616
42.763
43.069
42.774
42.202
41.585
41.02
40.467
39.833
39.135
38.52
38.121
37.965
38.0
38.087
38.067
37.898
37.609
37.25
36.839
36.372
35.874
35.379
34.931
34.551
34.237
34.001
33.782
33.549
33.416
33.727
34.81
36.674
38.881
40.846
42.115
42.566
42.408
41.93
41.349
40.797
40.272
39.686
39.037
38.45
38.054
37.876
37.851
37.857
37.783
37.617
37.367
37.017
36.585
36.152
35.738
35.32
34.916
34.548
34.247
33.998
33.756
33.513
33.285
33.159
33.412
34.434
36.267
38.413
40.213
41.235
41.5
41.253
40.737
40.121
39.525
38.965
38.387
37.802
37.297
36.942
36.772
36.747
36.748
36.715
36.618
36.404
36.073
35.694
35.3
34.899
34.529
34.212
33.906
33.608
33.348
33.131
32.942
32.738
32.559
32.686
33.552
35.246
37.33
39.178
40.32
40.628
40.346
39.798
39.215
38.67
38.138
37.576
36.989
36.435
36.064
35.948
36.015
36.143
36.232
36.22
36.072
35.799
35.425
35.011
34.622
34.299
34.022
33.718
33.406
33.154
32.971
32.75
32.46
32.238
32.317
32.992
34.439
36.428
38.389
39.772
40.354
40.212
39.668
39.032
38.46
37.951
37.417
36.829
36.284
35.931
35.812
35.869
35.971
36.02
35.969
35.829
35.602
35.303
34.963
34.602
34.233
33.879
33.557
33.307
33.11
32.923
32.731
32.513
32.281
32.196
32.572
33.71
35.535
37.567
39.188
40.044
40.112
39.608
38.872
38.184
37.622
37.131
36.626
36.111
35.714
35.52
35.507
35.582
35.687
35.765
35.749
35.608
35.342
35.01
34.705
34.439
34.176
33.905
33.632
33.392
33.183
32.998
32.846
32.694
32.571
32.711
33.543
35.205
37.283
39.122
40.267
40.565
40.187
39.505
38.819
38.259
37.759
37.211
36.65
36.224
36.027
36.071
36.29
36.515
36.635
36.599
36.381
36.063
35.729
35.401
35.068
34.716
34.367
34.074
33.859
33.698
33.556
33.388
33.171
32.995
33.091
33.799
35.282
37.219
39.033
40.254
40.669
40.368
39.702
39.008
38.418
37.874
37.287
36.688
36.225
36.018
36.057
36.244
36.465
36.597
36.588
36.419
36.117
35.783
35.446
35.125
34.831
34.56
34.284
34.015
33.789
33.59
33.366
33.114
32.927
33.051
33.859
35.5
37.62
39.525
40.709
41.072
40.822
40.256
39.599
38.978
38.379
37.797
37.259
36.807
36.513
36.43
36.48
36.558
36.618
36.607
36.499
36.278
35.972
35.652
35.347
35.026
34.677
34.298
33.941
33.718
33.615
33.514
33.307
33.027
32.868
33.209
34.413
36.382
38.567
40.325
41.245
41.343
40.92
40.301
39.695
39.167
38.712
38.254
37.74
37.233
36.886
36.778
36.845
36.965
37.0
36.892
36.695
36.44
36.135
35.77
35.375
34.998
34.676
34.398
34.144
33.88
33.637
33.447
33.264
33.098
33.165
33.839
35.314
37.318
39.259
40.565
41.051
40.893
40.385
39.766
39.207
38.718
38.228
37.681
37.17
36.813
36.647
36.629
36.696
36.734
36.676
36.555
36.366
36.109
35.762
35.376
35.008
34.687
34.404
34.121
33.817
33.528
33.325
33.184
33.026
32.915
33.204
34.289
36.099
38.088
39.629
40.405
40.454
40.045
39.482
38.93
38.43
37.962
37.455
36.93
36.5
36.271
36.254
36.362
36.454
36.435
36.306
36.102
35.802
35.441
35.056
34.668
34.312
34.014
33.764
33.518
33.307
33.111
32.913
32.688
32.553
32.841
33.832
35.446
37.26
38.735
39.528
39.645
39.312
38.764
38.176
37.671
37.2
36.692
36.208
35.883
35.747
35.766
35.895
36.036
36.112
36.058
35.848
35.535
35.185
34.837
34.515
34.227
33.98
33.762
33.546
33.312
33.066
32.843
32.656
32.555
32.739
33.517
34.973
36.797
38.471
39.562
39.935
39.731
39.173
38.504
37.886
37.339
36.822
36.365
36.06
35.946
35.975
36.089
36.219
36.286
36.239
36.064
35.802
35.491
35.171
34.861
34.562
34.314
34.121
33.941
33.744
33.548
33.35
33.165
33.109
33.482
34.572
36.261
38.027
39.333
39.959
39.968
39.538
38.916
38.306
37.786
37.333
36.891
36.49
36.234
36.183
36.274
36.451
36.595
36.626
36.531
36.333
36.051
35.72
35.412
35.136
34.893
34.657
34.427
34.204
33.976
33.744
33.562
33.509
33.758
34.576
36.019
37.767
39.289
40.195
40.383
40.035
39.459
38.851
38.266
37.744
37.293
36.935
36.696
36.61
36.673
36.86
37.097
37.244
37.176
36.936
36.6
36.295
36.051
35.799
35.556
35.322
35.106
34.93
34.795
34.634
34.403
34.21
34.313
34.987
36.273
37.878
39.301
40.189
40.461
40.234
39.73
39.131
38.54
37.997
37.502
37.098
36.886
36.869
36.974
37.076
37.137
37.152
37.081
36.897
36.625
36.292
35.944
35.652
35.421
35.231
35.087
34.929
34.692
34.403
34.159
34.112
34.482
35.462
36.959
38.531
39.662
40.12
39.977
39.456
38.834
38.285
37.822
37.362
36.878
36.435
36.177
36.168
36.334
36.545
36.671
36.646
36.498
36.252
35.973
35.726
35.506
35.343
35.2
35.011
34.792
34.585
34.413
34.305
34.288
34.455
35.044
36.207
37.719
39.18
40.25
40.754
40.757
40.442
40.018
39.587
39.139
38.7
38.279
37.912
37.666
37.588
37.611
37.652
37.66
37.59
37.428
37.177
36.883
36.586
36.28
35.987
35.76
35.574
35.379
35.142
34.888
34.68
34.598
34.84
35.654
37.009
38.621
40.077
41.016
41.335
41.148
40.713
40.276
39.879
39.452
38.989
38.524
38.147
37.899
37.792
37.784
37.777
37.71
37.539
37.276
36.972
36.657
36.34
36.025
35.714
35.444
35.24
35.076
34.876
34.595
34.294
34.126
34.339
35.16
36.54
38.142
39.483
40.261
40.435
40.188
39.796
39.429
39.091
38.725
38.298
37.862
37.509
37.281
37.174
37.168
37.189
37.169
37.072
36.918
36.72
36.459
36.125
35.771
35.439
35.175
34.981
34.85
34.725
34.54
34.308
34.082
34.001
34.375
35.434
37.012
38.63
39.82
40.403
40.447
40.162
39.789
39.455
39.16
38.815
38.384
37.94
37.587
37.408
37.407
37.469
37.468
37.362
37.164
36.93
36.683
36.415
36.123
35.834
35.566
35.353
35.171
34.99
34.8
34.593
34.348
34.103
33.969
34.209
35.06
36.512
38.197
39.616
40.452
40.726
40.646
40.391
40.07
39.717
39.371
39.047
38.712
38.369
38.078
37.875
37.759
37.69
37.63
37.545
37.37
37.064
36.686
36.366
36.103
35.797
35.462
35.184
34.987
34.83
34.686
34.536
34.353
34.135
33.959
34.031
34.652
35.93
37.594
39.178
40.253
40.698
40.667
40.381
40.034
39.747
39.481
39.175
38.801
38.41
38.085
37.846
37.744
37.765
37.786
37.703
37.453
37.08
36.679
36.34
36.074
35.836
35.592
35.337
35.06
34.806
34.607
34.426
34.24
34.047
33.848
33.748
34.026
34.903
36.35
38.008
39.384
40.175
40.365
40.181
39.888
39.607
39.365
39.069
38.633
38.112
37.636
37.331
37.244
37.281
37.323
37.297
37.154
36.896
36.572
36.216
35.875
35.556
35.253
34.953
34.688
34.453
34.221
33.994
33.791
33.623
33.481
33.324
33.289
33.708
34.808
36.433
38.141
39.433
40.052
40.108
39.861
39.502
39.141
38.799
38.435
38.008
37.576
37.268
37.142
37.136
37.16
37.12
37.02
36.866
36.633
36.316
35.943
35.577
35.268
35.017
34.776
34.501
34.201
33.956
33.81
33.701
33.544
33.292
33.051
33.09
33.729
35.067
36.827
38.485
39.607
40.029
39.883
39.455
38.988
38.577
38.171
37.72
37.27
36.906
36.653
36.541
36.547
36.566
36.524
36.404
36.199
35.937
35.651
35.327
34.967
34.595
34.287
34.048
33.839
33.649
33.434
33.217
33.004
32.8
32.658
32.756
33.389
34.7
36.473
38.228
39.512
40.086
40.03
39.582
39.029
38.549
38.124
37.655
37.138
36.682
36.352
36.178
36.206
36.37
36.505
36.481
36.313
36.051
35.726
35.351
34.958
34.55
34.174
33.874
33.637
33.444
33.267
33.057
32.815
32.568
32.419
32.581
33.365
34.864
36.765
38.496
39.612
40.0
39.794
39.297
38.756
38.27
37.781
37.239
36.724
36.344
36.162
36.15
36.236
36.331
36.356
36.271
36.07
35.768
35.413
35.046
34.668
34.3
33.96
33.671
33.44
33.228
33.046
32.92
32.809
32.627
32.453
32.687
33.756
35.59
37.624
39.213
40.025
40.102
39.71
39.114
38.487
37.931
37.448
36.995
36.59
36.286
36.104
36.088
36.19
36.324
36.347
36.227
36.004
35.713
35.366
34.993
34.629
34.269
33.936
33.662
33.447
33.247
33.034
32.802
32.57
32.4
32.461
33.124
34.582
36.54
38.397
39.648
40.121
39.926
39.364
38.691
38.049
37.452
36.895
36.435
36.123
35.932
35.865
35.917
36.047
36.145
36.138
36.04
35.814
35.454
35.013
34.599
34.261
33.957
33.666
33.423
33.224
33.044
32.869
32.673
32.476
32.464
33.006
34.36
36.328
38.293
39.7
40.291
40.183
39.682
39.041
38.423
37.853
37.321
36.844
36.455
36.24
36.196
36.266
36.403
36.517
36.529
36.395
36.119
35.75
35.345
34.978
34.693
34.439
34.147
33.826
33.521
33.286
33.111
32.939
32.76
32.69
33.126
34.398
36.349
38.424
40.03
40.806
40.798
40.329
39.699
39.056
38.468
37.952
37.504
37.126
36.845
36.73
36.816
37.025
37.205
37.229
37.065
36.759
36.366
35.946
35.545
35.187
34.89
34.639
34.388
34.13
33.91
33.735
33.561
33.367
33.201
33.309
34.11
35.719
37.79
39.691
40.912
41.344
41.185
40.702
40.105
39.54
39.034
38.573
38.155
37.815
37.646
37.716
37.931
38.109
38.096
37.91
37.619
37.288
36.963
36.63
36.304
36.002
35.765
35.537
35.265
34.996
34.778
34.598
34.405
34.257
34.439
35.295
36.877
38.792
40.444
41.421
41.668
41.41
40.886
40.285
39.717
39.203
38.73
38.32
38.024
37.892
37.951
38.096
38.174
38.09
37.861
37.53
37.126
36.707
36.348
36.026
35.698
35.376
35.083
34.838
34.632
34.425
34.196
33.988
33.985
34.541
35.88
37.776
39.676
41.063
41.701
41.677
41.269
40.718
40.159
39.633
39.12
38.617
38.203
37.964
37.869
37.87
37.874
37.815
37.642
37.366
37.033
36.656
36.268
35.89
35.51
35.125
34.745
34.388
34.084
33.846
33.643
33.416
33.225
33.367
34.254
35.946
38.0
39.77
40.861
41.251
41.121
40.751
40.345
39.943
39.48
38.94
38.42
38.014
37.772
37.668
37.667
37.725
37.744
37.649
37.425
37.109
36.735
36.335
35.956
35.621
35.292
35.003
34.768
34.55
34.301
34.062
33.912
34.02
34.698
36.114
38.044
39.946
41.31
41.944
41.957
41.636
41.234
40.831
40.405
39.916
39.375
38.863
38.484
38.285
38.228
38.214
38.142
37.966
37.695
37.348
36.981
36.634
36.309
35.983
35.641
35.315
35.028
34.774
34.525
34.284
34.065
33.975
34.3
35.292
36.931
38.818
40.441
41.485
41.883
41.79
41.47
41.119
40.764
40.32
39.747
39.11
38.512
38.107
37.961
37.987
38.015
37.935
37.705
37.401
37.086
36.735
36.335
35.952
35.628
35.334
35.064
34.826
34.621
34.43
34.211
33.976
33.787
33.899
34.643
36.062
37.854
39.534
40.723
41.318
41.421
41.242
40.955
40.648
40.306
39.838
39.259
38.699
38.277
38.037
37.952
37.942
37.877
37.69
37.387
36.987
36.548
36.148
35.792
35.444
35.102
34.797
34.55
34.349
34.153
33.96
33.773
33.606
33.437
33.288
33.275
33.667
34.735
36.417
38.284
39.809
40.679
40.906
40.703
40.324
39.972
39.663
39.258
38.699
38.083
37.589
37.305
37.215
37.23
37.256
37.184
36.964
36.636
36.272
35.923
35.581
35.255
34.936
34.651
34.42
34.239
34.086
33.958
33.877
33.813
33.688
33.475
33.252
33.164
33.48
34.414
35.926
37.63
39.054
39.892
40.129
39.959
39.637
39.345
39.1
38.818
38.386
37.828
37.334
37.043
36.98
37.018
37.015
36.918
36.735
36.5
36.203
35.814
35.388
35.01
34.702
34.466
34.254
34.009
33.753
33.558
33.444
33.37
33.263
33.107
32.922
32.75
32.694
33.017
34.018
35.655
37.476
38.921
39.7
39.881
39.731
39.496
39.286
39.088
38.827
38.409
37.843
37.312
36.971
36.841
36.849
36.865
36.798
36.617
36.335
36.011
35.682
35.374
35.079
34.774
34.457
34.138
33.866
33.696
33.58
33.452
33.296
33.094
32.844
32.59
32.412
32.422
32.875
34.006
35.672
37.408
38.716
39.342
39.349
39.008
38.605
38.254
37.942
37.583
37.113
36.577
36.091
35.779
35.682
35.734
35.831
35.867
35.771
35.549
35.233
34.881
34.551
34.27
34.004
33.726
33.467
33.281
33.194
33.133
33.039
32.915
32.777
32.637
32.477
